Wet lab_ID,Starch%,1350.155463,1351.397397,1352.641615,1353.888128,1355.136939,1356.388058,1357.641487,1358.897237,1360.15531,1361.415716,1362.678459,1363.943548,1365.210987,1366.480785,1367.752945,1369.027479,1370.304388,1371.583683,1372.865367,1374.14945,1375.435936,1376.724835,1378.01615,1379.309892,1380.606063,1381.904675,1383.20573,1384.509238,1385.815205,1387.123639,1388.434544,1389.747931,1391.063804,1392.382173,1393.703041,1395.026419,1396.352311,1397.680728,1399.011673,1400.345157,1401.681183,1403.019763,1404.360901,1405.704607,1407.050884,1408.399745,1409.751192,1411.105238,1412.461885,1413.821145,1415.183022,1416.547527,1417.914664,1419.284444,1420.656871,1422.031957,1423.409706,1424.790129,1426.17323,1427.559021,1428.947506,1430.338696,1431.732596,1433.129217,1434.528564,1435.930648,1437.335473,1438.743052,1440.153388,1441.566495,1442.982375,1444.401041,1445.822497,1447.246756,1448.673822,1450.103706,1451.536414,1452.971959,1454.410343,1455.85158,1457.295674,1458.742638,1460.192476,1461.645201,1463.100818,1464.559338,1466.020768,1467.485119,1468.952396,1470.422613,1471.895773,1473.37189,1474.850968,1476.333022,1477.818055,1479.30608,1480.797103,1482.291137,1483.788186,1485.288265,1486.791378,1488.297538,1489.806751,1491.319029,1492.834379,1494.352814,1495.874339,1497.398967,1498.926704,1500.457564,1501.991552,1503.528682,1505.068959,1506.612398,1508.159003,1509.708789,1511.261761,1512.817933,1514.377311,1515.93991,1517.505735,1519.074799,1520.64711,1522.222681,1523.801518,1525.383636,1526.969041,1528.557746,1530.149759,1531.745094,1533.343756,1534.945761,1536.551115,1538.159833,1539.77192,1541.387393,1543.006256,1544.628526,1546.254209,1547.883319,1549.515863,1551.151857,1552.791307,1554.434229,1556.080628,1557.730521,1559.383914,1561.040823,1562.701255,1564.365225,1566.03274,1567.703816,1569.378459,1571.056687,1572.738506,1574.423931,1576.112971,1577.80564,1579.501947,1581.201908,1582.905529,1584.612828,1586.323811,1588.038496,1589.756889,1591.479007,1593.204858,1594.934459,1596.667816,1598.404948,1600.145861,1601.890573,1603.639092,1605.391434,1607.147608,1608.90763,1610.671509,1612.439263,1614.210898,1615.986434,1617.765877,1619.549246,1621.336549,1623.127803,1624.923017,1626.722209,1628.525388,1630.33257,1632.143766,1633.958993,1635.778259,1637.601584,1639.428976,1641.260453,1643.096024,1644.935708,1646.779514,1648.62746,1650.479556,1652.33582,1654.196262,1656.0609,1657.929745,1659.802815,1661.680119,1663.561678,1665.447499,1667.337604,1669.232001,1671.13071,1673.033741,1674.941114,1676.852838,1678.768934,1680.689411,1682.61429,1684.54358,1686.477303,1688.415467,1690.358094,1692.305193,1694.256786,1696.212883,1698.173505,1700.138661,1702.108374,1704.082654,1706.061521,1708.044987,1710.033073,1712.02579,1714.023159,1716.025191,1718.031909,1720.043322,1722.059454,1724.080315,1726.105927,1728.136302,1730.171461,1732.211417,1734.256192,1736.305797,1738.360256,1740.419579,1742.48379,1744.5529,1746.626933,1748.705901,1750.789826,1752.878721,1754.97261,1757.071504,1759.175427,1761.284392,1763.398423,1765.517532,1767.641743,1769.771068,1771.905533,1774.04515,1776.189943,1778.339926,1780.495122,1782.655546,1784.821223,1786.992164,1789.168396,1791.349932,1793.536798,1795.729006,1797.926583,1800.129543,1802.33791,1804.551699,1806.770937,1808.995636,1811.225824,1813.461515,1815.702735,1817.949498,1820.201832,1822.45975,1824.72328,1826.992437,1829.267248,1831.547727,1833.833903,1836.12579,1838.423416,1840.726796,1843.035959,1845.350919,1847.671705,1849.998333,1852.330831,1854.669214,1857.013513,1859.363742,1861.71993,1864.082095,1866.450264,1868.824456,1871.204698,1873.591008,1875.983415,1878.381937,1880.786603,1883.197431,1885.61445,1888.037678,1890.467146,1892.902871,1895.344883,1897.793202,1900.247857,1902.708867,1905.176263,1907.650063,1910.130299,1912.61699,1915.110167,1917.609849,1920.116068,1922.628844,1925.148208,1927.67418,1930.206793,1932.746066,1935.292033,1937.844712,1940.404138,1942.970329,1945.543321,1948.123133,1950.7098,1953.303341,1955.903791,1958.511171,1961.125515,1963.746845,1966.375195,1969.010587,1971.653056,1974.302623,1976.959325,1979.623183,1982.294233,1984.972497,1987.658011,1990.350799,1993.050896,1995.758325,1998.473123,2001.195314,2003.924935,2006.662008,2009.406572,2012.15865,2014.918281,2017.685489,2020.460311,2023.242772,2026.032911,2028.830752,2031.636335,2034.449685,2037.27084,2040.099827,2042.936686,2045.781441,2048.634134,2051.494789,2054.363449,2057.240139,2060.1249,2063.017759,2065.918758,2068.827923,2071.745297,2074.670907,2077.604794,2080.546988,2083.49753,2086.456449,2089.423789,2092.399576,2095.383856,2098.376657,2101.378023,2104.387983,2107.406583,2110.433851,2113.469832,2116.514557,2119.568072,2122.630405,2125.701605,2128.7817,2131.870739,2134.968752,2138.075785,2141.191871,2144.317058,2147.451376,2150.594875,2153.747586,2156.909558,2160.080825,2163.261434,2166.45142,2169.650832,2172.859703,2176.078084,2179.306009,2182.54353,2185.790679,2189.047509,2192.314054,2195.590368,2198.876484,2202.172456,2205.478319,2208.794127,2212.119916,2215.45574,2218.801635,2222.157656,2225.52384,2228.900243,2232.286901,2235.683872,2239.091192,2242.508918,2245.93709,2249.375763,2252.824978,2256.284792,2259.755244,2263.236394,2266.72828,2270.230963,2273.744484,2277.268901,2280.804256,2284.350611,2287.908006,2291.476503,2295.056144,2298.646991,2302.249088,2305.862496,2309.48726,2313.123443,2316.771089,2320.430263,2324.101008,2327.783391,2331.477456,2335.183269,2338.900877,2342.630345,2346.371721,2350.125072,2353.890445,2357.667908,2361.457509,2365.259318,2369.073382,2372.899772,2376.738538,2380.589749,2384.453456,2388.32973,2392.218622,2396.120205,2400.034529,2403.961669,2407.901677,2411.854626,2415.82057,2419.799584,2423.791721,2427.797057,2431.815648,2435.84757,2439.892878,2443.951651,2448.023944,2452.109837,2456.209385,2460.32267,2464.44975,2468.590704,2472.745591,2476.914494,2481.097473,2485.294609,2489.505963,2493.73162,2497.971641,2502.22611,2506.495091,2510.778668,2515.076906,2519.389892,2523.717689,2528.060387,2532.418049,2536.790767,2541.178605,2545.581654,2549.999982
19-LF-R-PMIGAP-238/2,38.129,0.172228386,0.169818019,0.167540478,0.165489358,0.163489271,0.161538325,0.159948329,0.158635547,0.157349707,0.156090015,0.155409474,0.154761258,0.154124772,0.153774026,0.153894556,0.154013457,0.154130754,0.155202255,0.156540792,0.157864675,0.159438962,0.162216103,0.164958668,0.167667312,0.170937855,0.174590074,0.178192581,0.181746279,0.185460029,0.189134045,0.192765975,0.196197173,0.199347312,0.202470793,0.205567975,0.207966155,0.210170628,0.212357572,0.214273489,0.215147622,0.216013846,0.216872246,0.216869709,0.216304662,0.215744398,0.215183977,0.213792442,0.212409073,0.211033762,0.209745919,0.208577788,0.207413814,0.206253986,0.205726324,0.205343559,0.204961815,0.204681587,0.204762243,0.20484272,0.204923047,0.205077424,0.205276797,0.205476119,0.205697503,0.206743999,0.20779084,0.208838075,0.210858896,0.214166876,0.217472196,0.220774851,0.226238859,0.232120494,0.237988997,0.244051441,0.250762032,0.257459337,0.264143435,0.269671775,0.274559067,0.279443082,0.284169463,0.285728858,0.287287577,0.28884563,0.289118416,0.287826164,0.286536138,0.285248356,0.282868008,0.280308547,0.277756451,0.275190728,0.272571863,0.269959691,0.267354194,0.264934203,0.262608429,0.260285191,0.257981363,0.25591423,0.253845988,0.251776691,0.249844089,0.248063787,0.246280381,0.244493848,0.243006095,0.241558155,0.240106909,0.238730198,0.237552086,0.236371717,0.235189082,0.234152699,0.233184016,0.232214372,0.231273585,0.230643909,0.23001392,0.229383593,0.229042419,0.22900086,0.228959283,0.228917644,0.229514811,0.230187439,0.230861028,0.231718738,0.233006419,0.234295647,0.235586443,0.23724464,0.239058754,0.240874631,0.242774251,0.245356482,0.247942253,0.250531534,0.253754667,0.257585755,0.261424257,0.265270143,0.270269977,0.275383853,0.280506437,0.285712848,0.291085255,0.29646247,0.301844494,0.306184475,0.310128341,0.314075165,0.317691416,0.319038018,0.320386715,0.321737556,0.321792072,0.320702974,0.319611155,0.318516648,0.316178461,0.313748707,0.311311898,0.308753339,0.305963773,0.303164667,0.30035607,0.297487874,0.294590423,0.291680486,0.288735508,0.285647815,0.28254544,0.279428322,0.276292422,0.273139916,0.269974269,0.266795413,0.264101732,0.261420916,0.258730334,0.256554191,0.255301012,0.254042354,0.252778157,0.253799885,0.255534175,0.257277536,0.259832062,0.266356611,0.272905925,0.279480131,0.289028298,0.300782476,0.312538274,0.324295706,0.338840658,0.353413892,0.367949091,0.382036564,0.395427932,0.408792709,0.422130946,0.432247556,0.44149432,0.450750045,0.459149825,0.463854034,0.468575418,0.473314107,0.47617352,0.477742036,0.479318676,0.480903528,0.480759772,0.480610216,0.480459711,0.479860611,0.478586805,0.4773035,0.476010645,0.474112378,0.472055562,0.469983541,0.467901918,0.465828557,0.463742223,0.461642805,0.459947584,0.458506244,0.457056844,0.455607128,0.454590767,0.453567677,0.452537809,0.451371761,0.450018702,0.448654518,0.447279157,0.445474043,0.443564861,0.441639169,0.43973246,0.437929931,0.436112897,0.434281285,0.432966693,0.431949981,0.430925091,0.42992262,0.429693687,0.42946266,0.429229495,0.429145388,0.429252158,0.429360056,0.429469061,0.42964689,0.429838842,0.430032749,0.430266792,0.430617689,0.430971866,0.43132932,0.431853429,0.432468656,0.433089021,0.433726258,0.434557835,0.435395628,0.436239595,0.437114159,0.438023169,0.438938224,0.43985949,0.440662897,0.441452513,0.442247477,0.442990745,0.44358472,0.44418309,0.444785773,0.445527114,0.446338562,0.447155827,0.448061319,0.449939057,0.451826934,0.453724963,0.456348711,0.459750262,0.463163357,0.466588177,0.470631199,0.474763719,0.478908501,0.482802532,0.486067803,0.489345721,0.492636415,0.49461322,0.496014964,0.497422638,0.498677979,0.498495121,0.498311629,0.498127495,0.497595397,0.49671851,0.495839539,0.494958416,0.493842429,0.49269891,0.491551721,0.490293176,0.488789858,0.487278043,0.485757754,0.484019625,0.482185036,0.4803362,0.478477314,0.476634702,0.474776633,0.472902907,0.471072008,0.469279786,0.467473392,0.465652512,0.46364577,0.461610837,0.459560899,0.4574081,0.455062175,0.452699269,0.450319165,0.448038526,0.445782331,0.443508495,0.441289845,0.439504053,0.437702488,0.43588477,0.434236439,0.432728635,0.431206074,0.429668427,0.428154639,0.426627771,0.425085441,0.423621015,0.422314968,0.420995933,0.41966385,0.418883955,0.418279682,0.417669249,0.417160079,0.417211549,0.417263578,0.417316121,0.417369452,0.417423435,0.417478055,0.417533321,0.417186823,0.41682343,0.416456191,0.416039604,0.415542117,0.415039551,0.414531989,0.414230945,0.413988066,0.413742844,0.413514525,0.413372559,0.413229097,0.413084245,0.412744428,0.412263019,0.41177684,0.411285694,0.410422738,0.409547059,0.408662763,0.407761681,0.406839099,0.405907143,0.404965771,0.404145029,0.403348859,0.402544147,0.401737603,0.400949873,0.400153555,0.399348385,0.39852195,0.39767868,0.396826645,0.395966954,0.395241576,0.394509086,0.393769382,0.393106725,0.392557771,0.392003409,0.391443645,0.390901137,0.390358377,0.389810115,0.389245255,0.388635916,0.388020357,0.387398503,0.386869948,0.386395998,0.385917271,0.38544312,0.385275577,0.385106276,0.384935314,0.384833209,0.384822672,0.384812073,0.384801317,0.384786639,0.384770935,0.384755032,0.384786211,0.384966403,0.385148271,0.385332026,0.385875775,0.386622682,0.387376942,0.388170161,0.389573328,0.390991695,0.392425491,0.394119996,0.396129557,0.39816191,0.400217209,0.402954265,0.405830065,0.408736233,0.412013574,0.416285494,0.420597742,0.42495077,0.430365219,0.436341675,0.442371279,0.448534433,0.455812904,0.463158288,0.470571334,0.478287652,0.486338283,0.494465959,0.502671919,0.510956458,0.519318264,0.527758372,0.536149103,0.544285637,0.552492644,0.560771068,0.568397211,0.575753934,0.583170951,0.590513475,0.596547915,0.60263238,0.60876719,0.614238449,0.619023559,0.62385085,0.628720177,0.632628798,0.636459032,0.640323784,0.643924245,0.646863946,0.649829705,0.652821918,0.655143849,0.657195846,0.659265574,0.661290071,0.662824739,0.664373506,0.665936415,0.66764297,0.669489255,0.671354251,0.673238678,0.675864331,0.678581938,0.681328827,0.68430088,0.687714576,0.69116165,0.694642717,0.698233621,0.701884194,0.705565665,0.709255876,0.712825998,0.716426094,0.720056674
19-LF-K-PMIGAP-194/2,38.517,0.168638382,0.166685409,0.164815332,0.163063165,0.161355564,0.159690875,0.158454377,0.157544702,0.156653898,0.155781347,0.155490381,0.155224371,0.154962593,0.154889249,0.155130316,0.155368553,0.155603999,0.156560326,0.157716587,0.158859537,0.160228847,0.162684753,0.165107888,0.167498882,0.17043524,0.173745779,0.177013044,0.180237898,0.183507267,0.186743608,0.189946152,0.192875181,0.19540238,0.197908228,0.200392977,0.202195836,0.203812258,0.205415119,0.206831975,0.207538949,0.208239903,0.20893492,0.20908639,0.208882019,0.208679125,0.208474127,0.20765761,0.206845611,0.206038086,0.205248968,0.204483646,0.203721561,0.202962731,0.202624803,0.202383368,0.202142637,0.201991468,0.202159275,0.202326918,0.202494373,0.202821401,0.203245628,0.203670061,0.204118084,0.205436172,0.206754398,0.208072793,0.210264481,0.213608447,0.216946619,0.220278977,0.225482859,0.231044917,0.236591602,0.242305273,0.248588164,0.254859059,0.261117966,0.266388923,0.27111256,0.275833745,0.280416177,0.2822017,0.28398668,0.285771049,0.286351984,0.285466928,0.28458314,0.283700578,0.281637658,0.279379081,0.277126098,0.274824145,0.272371946,0.26992583,0.267485726,0.265284563,0.26320515,0.261128435,0.259085301,0.25747368,0.255861266,0.254248003,0.252807328,0.2515594,0.250308959,0.249055971,0.247990934,0.246950649,0.245907937,0.244903552,0.244002661,0.243100382,0.242196727,0.241457774,0.240795199,0.240132105,0.239505034,0.239260364,0.23901545,0.238770301,0.238764988,0.239008463,0.239252317,0.239496546,0.240085444,0.240715371,0.241346175,0.242052914,0.242935928,0.243819517,0.244703644,0.245824844,0.247046396,0.248268683,0.249571442,0.25153782,0.253506945,0.255478878,0.258052875,0.26120388,0.264360755,0.267523443,0.271606722,0.275779201,0.27995673,0.284104058,0.288179475,0.292256922,0.296336387,0.299264401,0.301754664,0.304247127,0.306440127,0.306578742,0.30671767,0.30685684,0.305993298,0.304244495,0.302491481,0.300734247,0.29822766,0.295663893,0.293093725,0.290474485,0.287764615,0.285045936,0.282318373,0.27950195,0.276645773,0.273776838,0.270878522,0.267872004,0.26485125,0.26181617,0.25891292,0.256116726,0.253309923,0.250492467,0.248392047,0.246317538,0.244235957,0.242624008,0.241852895,0.241078113,0.240299636,0.241451129,0.243206404,0.244972061,0.247477192,0.253593459,0.259735009,0.265902037,0.274982967,0.2862238,0.297464884,0.308706222,0.322930883,0.337187072,0.351403874,0.365295758,0.378693812,0.392066466,0.405413782,0.415782085,0.425349011,0.434927461,0.443693977,0.448945386,0.45421712,0.459509414,0.462975311,0.465187971,0.467412642,0.469649418,0.470107512,0.470563674,0.471022846,0.470993751,0.470228394,0.469457168,0.46868002,0.467221786,0.46558896,0.463943964,0.462262986,0.460481143,0.458688371,0.456884615,0.455349658,0.453982987,0.452608887,0.451232478,0.450138508,0.449037586,0.447929565,0.446730191,0.445405808,0.44407092,0.442725261,0.441162531,0.439542846,0.437909388,0.436303124,0.434821819,0.433328579,0.431823263,0.4306175,0.429582755,0.428539466,0.42750553,0.426920042,0.426329101,0.425732637,0.425326852,0.425166042,0.425003565,0.424839496,0.425073197,0.425382187,0.425694296,0.426067415,0.426618242,0.427173995,0.427734739,0.428149506,0.428487543,0.42882834,0.429152115,0.429157756,0.429163415,0.429169116,0.429225105,0.429340091,0.429455881,0.429572499,0.430153519,0.43081022,0.431471494,0.432269918,0.433432585,0.434603426,0.435782425,0.43724747,0.438856771,0.440476882,0.442170726,0.444611695,0.447065953,0.449533674,0.452559405,0.456182191,0.459818881,0.463469601,0.467554673,0.471706515,0.475871418,0.479774649,0.483019747,0.486276747,0.489545811,0.491560366,0.493026059,0.494497737,0.495833208,0.495879075,0.49592508,0.495971346,0.495741108,0.495237037,0.494731758,0.494225233,0.493491895,0.492733259,0.491972265,0.491059984,0.489812683,0.488558644,0.487297758,0.485713449,0.483990691,0.482254208,0.480507439,0.478771123,0.47701959,0.475252838,0.47361728,0.472102627,0.470576017,0.469037348,0.467474968,0.465901009,0.464316365,0.462617965,0.460700048,0.458768902,0.456824404,0.454788904,0.452709447,0.450613246,0.448544934,0.446735933,0.444910044,0.443067053,0.441448876,0.440018818,0.438574571,0.437115747,0.435935367,0.434759466,0.433571782,0.43247688,0.431564589,0.430643415,0.429713262,0.429079663,0.428538913,0.427992794,0.427487129,0.427218452,0.426946934,0.426672674,0.42637448,0.426056814,0.425735651,0.425411019,0.424932491,0.424443899,0.423949984,0.423471779,0.423024212,0.422572003,0.422115223,0.421807011,0.421540203,0.42127075,0.420996416,0.420709754,0.420420292,0.420128029,0.41966346,0.419073486,0.418477557,0.417875687,0.417007877,0.416128232,0.415239559,0.414333829,0.413406302,0.412469211,0.411522262,0.410650238,0.409790886,0.408922583,0.408060071,0.407248847,0.406429213,0.405600914,0.404812682,0.404048278,0.403276016,0.402497159,0.401849459,0.401195339,0.400534626,0.399911585,0.399345647,0.398773968,0.398196609,0.397626102,0.397052728,0.396473338,0.395899684,0.39536138,0.394817327,0.39426758,0.393839806,0.393484507,0.39312551,0.392770126,0.392656918,0.392542488,0.392426983,0.392381757,0.392430086,0.392478841,0.39252803,0.392700375,0.392898217,0.393097917,0.393360382,0.393816817,0.394277639,0.394743124,0.395406961,0.396184344,0.3969696,0.397776659,0.398858223,0.399951154,0.401055518,0.402387048,0.403993484,0.405617635,0.407259353,0.409733956,0.412371262,0.415037521,0.418061514,0.422046705,0.426072488,0.430139839,0.43494799,0.440152409,0.445403987,0.450750177,0.456763059,0.462827308,0.468943795,0.475392435,0.482210704,0.489091878,0.496036907,0.503573641,0.511258998,0.519021596,0.526876903,0.534845216,0.542890274,0.551013252,0.558546124,0.56583625,0.573186717,0.580457291,0.586362193,0.592311851,0.598306799,0.603704274,0.608485659,0.613307222,0.61816906,0.622289234,0.626358766,0.630466419,0.63433198,0.637583844,0.640865056,0.644176144,0.646761022,0.649052303,0.651362116,0.653627806,0.65540525,0.657197788,0.659005226,0.660986962,0.663139197,0.665313195,0.667509328,0.670296004,0.673164611,0.676066892,0.679039858,0.682123506,0.685239866,0.688389739,0.69130157,0.694136515,0.696995641,0.699852938,0.702561151,0.705289941,0.708039479
19-LF-K-PMIGAP-191/2,97.091,0.175446338,0.173435005,0.17148735,0.169546497,0.167655012,0.165811065,0.164321476,0.16310357,0.161910894,0.160742701,0.16025391,0.159796603,0.159346505,0.15919327,0.159534766,0.15987223,0.160205732,0.161391427,0.162813027,0.164218258,0.165831166,0.168455422,0.171044608,0.173599476,0.176623814,0.179968412,0.183269308,0.186527315,0.189913087,0.193265818,0.196583538,0.199704092,0.202542203,0.205356316,0.208146732,0.210258227,0.212182096,0.214089849,0.215758267,0.216509338,0.217254013,0.217992361,0.218034568,0.217621304,0.217211023,0.216800161,0.215773076,0.214751669,0.213735913,0.212810702,0.212011938,0.211216577,0.210424594,0.210149508,0.2099926,0.209836124,0.20976385,0.209991998,0.210219926,0.210447597,0.210805952,0.21124395,0.211682179,0.212145407,0.213531346,0.214917423,0.216303682,0.218624554,0.222178696,0.22572666,0.229268487,0.23479306,0.240697111,0.246584842,0.252647672,0.259307932,0.265955473,0.272590325,0.278173629,0.283174398,0.288172568,0.293022367,0.29488065,0.296738386,0.298595489,0.29916443,0.29816423,0.297165466,0.296168085,0.293965839,0.291564087,0.289168256,0.286757895,0.284295003,0.281838215,0.27938747,0.277250767,0.275273915,0.273299632,0.271354234,0.269776648,0.268198274,0.266619083,0.265120565,0.263711354,0.262299257,0.260884312,0.259556103,0.258237642,0.256916077,0.255649598,0.254531207,0.253411133,0.252289312,0.251411054,0.250645781,0.249879891,0.249151288,0.248818686,0.248485765,0.248152529,0.248035233,0.248141927,0.248248786,0.248355812,0.248855013,0.249400718,0.249947148,0.250628417,0.251624026,0.252620287,0.253617127,0.254976469,0.256489121,0.258002707,0.259596874,0.261854501,0.264115294,0.266379275,0.269180225,0.27249596,0.275817871,0.279145918,0.283336215,0.287610462,0.291889878,0.296165113,0.300423635,0.304684236,0.308946941,0.312127313,0.314896434,0.317668028,0.320133828,0.320500987,0.320868874,0.321237417,0.320507736,0.318808525,0.317105221,0.315397822,0.312801774,0.310138773,0.307469141,0.304740474,0.301902006,0.299054315,0.296197361,0.293260754,0.290287231,0.287300411,0.284276939,0.281105763,0.277919557,0.274718232,0.271610587,0.268578836,0.265535592,0.262480792,0.260166054,0.257877561,0.255581263,0.253802927,0.252951965,0.252096935,0.251237823,0.25241797,0.254235966,0.25606469,0.25864346,0.264884175,0.271150683,0.277443198,0.286643177,0.297997986,0.309353054,0.320708364,0.335006408,0.349334813,0.363623614,0.377559876,0.390957631,0.404330006,0.417677029,0.427965569,0.437430866,0.446907579,0.455558622,0.46063561,0.465732251,0.47084879,0.474138986,0.47617555,0.478223173,0.480281934,0.480584584,0.480884334,0.481186019,0.4809896,0.480042493,0.479088124,0.478126424,0.476466873,0.47462747,0.472774389,0.470902101,0.468997196,0.467080566,0.465152208,0.463585643,0.462246368,0.460899816,0.45955166,0.458518364,0.457478452,0.456431845,0.45523027,0.453815542,0.452389535,0.45095208,0.449179156,0.447322629,0.445450301,0.443621956,0.441980112,0.440325009,0.438656541,0.437433285,0.436466054,0.435490887,0.434529796,0.434123815,0.433714033,0.433300444,0.433031776,0.432949257,0.432865888,0.432781721,0.432983852,0.433240447,0.433499641,0.433825723,0.434348342,0.434875685,0.435407741,0.435858611,0.436267574,0.436679873,0.437074737,0.437135341,0.43719644,0.43725798,0.437308961,0.437347448,0.437386164,0.437425178,0.437861913,0.438363035,0.438867722,0.439523012,0.440580911,0.441646267,0.442719059,0.444128946,0.445707867,0.447297353,0.448959939,0.451364443,0.45378197,0.456212826,0.459171508,0.462694869,0.466231792,0.469782296,0.47372683,0.47773257,0.4817509,0.485505849,0.488599244,0.491703957,0.494820134,0.496707874,0.498057943,0.499413531,0.500640206,0.500647686,0.500655184,0.500662769,0.500424099,0.499941426,0.499457644,0.498972653,0.498230334,0.497459516,0.496686332,0.495738491,0.494403667,0.49306164,0.491712311,0.490068384,0.48829731,0.486512127,0.484735904,0.483115618,0.481481189,0.479832503,0.478343031,0.477000184,0.47564676,0.474282683,0.472689933,0.471069225,0.469437474,0.467604211,0.465373574,0.463127584,0.460866023,0.458559967,0.456225371,0.453871974,0.45159423,0.44988214,0.448154027,0.446409727,0.444986135,0.443832631,0.442667697,0.441490985,0.440331119,0.439161349,0.437979856,0.436753136,0.435452356,0.434138955,0.43281269,0.431777893,0.430831637,0.429875985,0.429019196,0.428725244,0.428428222,0.428128149,0.427989095,0.427976146,0.427963052,0.42794982,0.427767903,0.427578551,0.427387136,0.427138618,0.426794331,0.426446491,0.426095134,0.425779835,0.425473043,0.42516321,0.424833649,0.424425182,0.424012778,0.423596265,0.422964106,0.422174655,0.421377359,0.420572006,0.419518641,0.418451818,0.417374001,0.416340143,0.415380941,0.414411886,0.413432659,0.412630837,0.411868797,0.411098794,0.410324131,0.409555812,0.408779529,0.407995072,0.407189233,0.40636639,0.405535196,0.404697275,0.404047786,0.40339187,0.402729374,0.402140774,0.401661315,0.401177036,0.400687949,0.400069415,0.39941661,0.398757012,0.398033705,0.397101548,0.396159433,0.395207403,0.394380686,0.393626732,0.392864907,0.392115105,0.392019959,0.391923829,0.391826774,0.391927738,0.392291076,0.392657963,0.393028335,0.393286865,0.39352527,0.393765975,0.393948872,0.393943507,0.393938059,0.393932517,0.394106,0.394380098,0.394656892,0.394975102,0.396037551,0.397111107,0.398195903,0.39967646,0.401637894,0.403620807,0.405625348,0.408342919,0.411205294,0.414099031,0.417273209,0.421183985,0.425134591,0.429126006,0.433850109,0.438965991,0.444128269,0.449395168,0.45547212,0.461601056,0.46778284,0.474262563,0.481073659,0.487947593,0.494885246,0.502176347,0.509580383,0.517058902,0.52460069,0.532184725,0.539841744,0.547572984,0.554826192,0.561887349,0.569006951,0.576055788,0.581848673,0.587685554,0.593566764,0.598814103,0.603407648,0.608039691,0.612710496,0.616616428,0.620467318,0.624354252,0.628053096,0.6312664,0.634508813,0.637780642,0.640425056,0.642817599,0.645229506,0.647578943,0.649286448,0.651008317,0.652744641,0.654502702,0.656285093,0.658085613,0.659904365,0.662293754,0.664759112,0.667253434,0.66990689,0.67286379,0.675851886,0.678872305,0.681809386,0.68472868,0.687672779,0.690603537,0.693304405,0.696025778,0.698767756
19-LF-K-PMIGAP-203/2,28.985,0.18853254,0.186422147,0.184405459,0.182537861,0.180717829,0.178943473,0.177543912,0.176431203,0.175341566,0.174274268,0.173800441,0.173354764,0.172916168,0.172758683,0.173069623,0.173376892,0.173680522,0.174926152,0.176433073,0.177922644,0.179650297,0.182532396,0.185376034,0.188181931,0.191482132,0.195119104,0.198708554,0.202251386,0.205784137,0.209280308,0.212739985,0.215924906,0.218707985,0.221467546,0.224203825,0.226191692,0.227974848,0.229743068,0.231283878,0.231951943,0.23261432,0.233271067,0.233286493,0.232882373,0.232481182,0.232079405,0.231079642,0.230085401,0.229096643,0.228178996,0.227359973,0.226544444,0.225732378,0.225411821,0.225203738,0.224996279,0.224879357,0.225085225,0.225290902,0.225496366,0.225869049,0.226343625,0.226818432,0.227319687,0.228796789,0.230274057,0.231751518,0.23419074,0.237898954,0.241600743,0.245296086,0.251040867,0.257177799,0.263297767,0.269602536,0.276537246,0.283458687,0.290366947,0.296185032,0.30139917,0.306610617,0.311667489,0.313608123,0.315548191,0.317487571,0.318100819,0.317098622,0.316097847,0.31509847,0.31290321,0.310509945,0.308122567,0.305725351,0.303289082,0.300858805,0.298434547,0.296292626,0.294294477,0.292298906,0.290329767,0.288693407,0.287056226,0.285418219,0.283902875,0.282524053,0.281142453,0.279758042,0.278612297,0.277498449,0.276381964,0.275344746,0.274517128,0.27368826,0.272858111,0.272224963,0.271683231,0.271141108,0.270627693,0.270419441,0.270210973,0.270002314,0.269991049,0.270184554,0.270378364,0.270572472,0.271100069,0.271667312,0.27223534,0.272882972,0.273715602,0.274548774,0.275382431,0.276460374,0.277641663,0.278823665,0.280094318,0.282096294,0.284101083,0.286108718,0.288807279,0.29216787,0.29553474,0.298907833,0.303356397,0.307908878,0.312466833,0.317006567,0.32149916,0.32599399,0.330491015,0.333757294,0.336555739,0.33935666,0.341833897,0.34209018,0.34234698,0.342604223,0.341740806,0.339888005,0.338030712,0.336168973,0.333383854,0.330528997,0.327666989,0.324741842,0.321699212,0.318646716,0.315584265,0.312526588,0.30946077,0.306381282,0.303289821,0.300195035,0.2970856,0.293961391,0.29093399,0.287985012,0.285024849,0.282053452,0.279644874,0.277254155,0.274855286,0.272942633,0.271900977,0.270854365,0.269802762,0.270976992,0.272846988,0.27472799,0.277429102,0.284136807,0.290872279,0.297635685,0.307429795,0.319469657,0.331509769,0.343550173,0.358442256,0.373360873,0.388238299,0.402692049,0.41649333,0.430268441,0.444017437,0.454610607,0.464354266,0.474109681,0.483016374,0.488249183,0.493502267,0.498775861,0.502140121,0.504193606,0.506258268,0.508334135,0.508637674,0.50893825,0.509240814,0.509104429,0.508306493,0.507502407,0.506692167,0.505256255,0.503659382,0.502050607,0.50039352,0.498587874,0.49677116,0.494943302,0.493362892,0.491937085,0.490503542,0.489069469,0.488036667,0.486997282,0.485951204,0.484875003,0.483758514,0.482633161,0.481498708,0.48011624,0.478671431,0.477214326,0.475745657,0.474267692,0.472777798,0.471275877,0.470022363,0.468909697,0.467787898,0.466676797,0.466064134,0.465445771,0.464821628,0.464381074,0.464176473,0.463969781,0.463761024,0.463817489,0.463923351,0.464030318,0.464176461,0.464438656,0.464703237,0.464970158,0.465184862,0.465372305,0.465561289,0.465741991,0.465764861,0.46578791,0.465811104,0.465859877,0.465938673,0.466017984,0.466097867,0.466509328,0.466974746,0.467443457,0.468066339,0.469101981,0.47014496,0.471195182,0.472713954,0.474466186,0.476230147,0.478077374,0.480773164,0.483483609,0.486208951,0.489396221,0.493076687,0.496771317,0.500480141,0.504454027,0.508472645,0.512503951,0.516306189,0.51953092,0.522767485,0.526016003,0.528171328,0.529849294,0.531534134,0.533082411,0.533331289,0.533580981,0.533831571,0.533695892,0.53317734,0.532657553,0.5321365,0.531333265,0.530498812,0.529661784,0.528737561,0.527620956,0.526498297,0.525369524,0.524033852,0.522607875,0.521170502,0.519708953,0.518139903,0.516557087,0.514960527,0.513360235,0.511756404,0.510139943,0.508510714,0.506792089,0.505055746,0.503307542,0.501484188,0.49952069,0.497543689,0.495552982,0.493525171,0.491473067,0.489404462,0.487356969,0.485526035,0.483677974,0.481812673,0.480148085,0.478651088,0.477139224,0.475612146,0.47438202,0.473156993,0.471919686,0.470773978,0.469809128,0.468834914,0.467851151,0.467145286,0.466525711,0.465899943,0.465328911,0.465073394,0.464815215,0.464554398,0.46438139,0.46427695,0.464171372,0.464064645,0.463828936,0.463586494,0.463341459,0.463000193,0.462496979,0.461988542,0.461474932,0.460840806,0.46016723,0.459487007,0.458805869,0.458145187,0.457478021,0.456804288,0.456197192,0.455636499,0.455070123,0.454498105,0.453966806,0.45343069,0.452888966,0.452283393,0.451580637,0.450870753,0.45015333,0.449220111,0.448223854,0.447217174,0.446178488,0.445044057,0.443897863,0.442739644,0.441703356,0.440744383,0.439775672,0.438800438,0.438193534,0.437580585,0.436961529,0.436419802,0.435992086,0.435560036,0.435123701,0.434628761,0.434116664,0.43359919,0.433057448,0.432442786,0.431821564,0.431193781,0.430640109,0.43012918,0.429612919,0.429099631,0.428859411,0.428616703,0.428371634,0.428234091,0.42823989,0.428245702,0.428251508,0.428407373,0.428593882,0.428782107,0.429014615,0.429382868,0.429754625,0.430130146,0.430642647,0.43123392,0.43183108,0.432449756,0.433370978,0.434301841,0.435242495,0.436483457,0.438088984,0.439712122,0.441352924,0.443965694,0.446765851,0.449596691,0.452800886,0.457007014,0.461256051,0.465548975,0.470561784,0.475961148,0.481409364,0.48695024,0.493108638,0.499319641,0.505584152,0.512146261,0.519039098,0.525995582,0.533016495,0.540495172,0.548103098,0.555787471,0.563491458,0.57112227,0.578826516,0.586605425,0.593585294,0.600223553,0.606916653,0.613509245,0.618577308,0.623683785,0.628829108,0.633460485,0.63756181,0.641697601,0.6458679,0.649789366,0.653714823,0.657677039,0.661562173,0.665218441,0.668907804,0.67263067,0.675649798,0.678386678,0.681145619,0.683805001,0.685503304,0.687215908,0.68894287,0.690588856,0.692160986,0.693749019,0.695353156,0.697623265,0.699976679,0.702357617,0.704952578,0.707968737,0.711016711,0.714097627,0.717049115,0.719965421,0.722906533,0.725799766,0.728233663,0.7306859,0.733156872
19-LF-K-PMIGAP-171/1,32.134,0.229881692,0.227072714,0.22437795,0.221814687,0.219316353,0.216880547,0.214889484,0.213240155,0.211625497,0.210044482,0.209299852,0.208596717,0.20790535,0.20762184,0.208016178,0.208405736,0.208790554,0.210365991,0.212272525,0.214157876,0.216318484,0.219818286,0.223273762,0.226685774,0.230660944,0.235018782,0.239320922,0.243568363,0.247867775,0.252123603,0.256335179,0.260262091,0.263777554,0.26726403,0.270721846,0.273283738,0.275600004,0.277897492,0.279892615,0.280723344,0.281546897,0.282363357,0.282317455,0.281707824,0.281103022,0.280498444,0.279121566,0.277752884,0.276392348,0.275115354,0.273952899,0.272795204,0.271642355,0.271059878,0.270608276,0.270157823,0.269817097,0.26986617,0.269915131,0.269964118,0.270260428,0.270707216,0.271154158,0.271633618,0.273319145,0.27500508,0.276691423,0.279452335,0.283632859,0.287808886,0.291980379,0.29829549,0.305024827,0.311741047,0.318616063,0.326028556,0.333430102,0.340820701,0.346950403,0.352379733,0.357805678,0.36306511,0.36497758,0.366888651,0.368798464,0.36932511,0.368167884,0.367012634,0.365859296,0.36347365,0.360884362,0.358301534,0.355700024,0.353032625,0.350371615,0.347716892,0.345292494,0.342985444,0.340681221,0.338395058,0.336321944,0.334247917,0.332172985,0.330156246,0.328203031,0.326246198,0.324285836,0.322496532,0.32072835,0.318956217,0.317267972,0.315803533,0.314336846,0.312867773,0.311659175,0.310571218,0.309482365,0.308434142,0.307820943,0.307207192,0.306592907,0.3062902,0.306310509,0.306330817,0.306351156,0.307032791,0.307792457,0.308552984,0.30951679,0.310955125,0.31239462,0.313835186,0.315703897,0.317754402,0.319806864,0.321949072,0.324822264,0.327700252,0.33058305,0.334080875,0.338168025,0.342262876,0.34636547,0.351469756,0.356671835,0.361880246,0.367097277,0.372323797,0.37755359,0.382786643,0.386881394,0.390544584,0.394211685,0.397555623,0.398674228,0.399795119,0.400918153,0.400819388,0.399642499,0.398462829,0.397280349,0.394900019,0.392432222,0.389958556,0.38732681,0.384392204,0.381448564,0.378495929,0.375383529,0.372206743,0.369016783,0.365789071,0.362406584,0.359009147,0.355596621,0.352206998,0.348835106,0.345450423,0.342052994,0.339212853,0.336388174,0.333553045,0.331286412,0.330038955,0.328785302,0.327525382,0.32881264,0.330895716,0.332990937,0.335953322,0.34314988,0.35037486,0.35762851,0.367754301,0.380009083,0.392266696,0.404527142,0.418835259,0.433162952,0.447461563,0.461017827,0.473396887,0.48576292,0.498115834,0.507074609,0.515117747,0.523174162,0.530455792,0.534372262,0.538303628,0.542250165,0.54467045,0.546042375,0.547421266,0.548807335,0.54880643,0.548801747,0.548796935,0.548375387,0.547326784,0.546270405,0.545206218,0.543568177,0.541781056,0.539981165,0.538180836,0.536416618,0.53464178,0.532856255,0.531419836,0.530202543,0.528978373,0.527752542,0.526810852,0.525862814,0.524908357,0.523828021,0.522574802,0.521311352,0.520037511,0.518511828,0.516922147,0.515318909,0.513757366,0.512369271,0.510970061,0.509559659,0.508505881,0.507656994,0.506801206,0.505955675,0.50554195,0.505124398,0.504703029,0.504409439,0.504280089,0.504149389,0.504017349,0.504186542,0.504412763,0.504641227,0.504951007,0.505501902,0.506057827,0.506618759,0.507173099,0.507725852,0.508283138,0.508829152,0.509123084,0.509419209,0.509717558,0.509970405,0.510169503,0.510369942,0.510571852,0.510983661,0.51143069,0.511880864,0.512440377,0.513291108,0.514148173,0.515011706,0.516214592,0.517587107,0.518969327,0.520423624,0.522619925,0.524827425,0.527046145,0.529727564,0.532902992,0.536088433,0.539284094,0.542771262,0.546304715,0.549848702,0.553154376,0.555864313,0.558585562,0.561318118,0.562947506,0.564094004,0.565245733,0.566271337,0.566103266,0.565934608,0.565765309,0.565322815,0.56460974,0.563895083,0.563178813,0.562341503,0.561489523,0.560634835,0.559708694,0.558625063,0.557535206,0.556439057,0.555125981,0.55371847,0.552299752,0.550854824,0.549289246,0.547710641,0.546118707,0.544511426,0.542889966,0.541256527,0.539610905,0.537859489,0.536088793,0.534306055,0.532465759,0.530520864,0.528561782,0.526588589,0.52466158,0.522740879,0.520804589,0.518895708,0.51723846,0.515566269,0.513879044,0.51233813,0.510918889,0.509486013,0.508039377,0.506785739,0.505531128,0.504263963,0.503101938,0.50214586,0.501180034,0.50020455,0.499593778,0.49909834,0.498597814,0.498151516,0.498014072,0.497875254,0.497734924,0.49761561,0.497512469,0.497408244,0.497302984,0.497088067,0.496867492,0.496644522,0.496421607,0.496200575,0.49597738,0.495751822,0.495578953,0.495420173,0.495259881,0.495079768,0.494815112,0.494547717,0.494277614,0.493848242,0.493302825,0.492751817,0.492195221,0.491445609,0.490686682,0.489920051,0.489148763,0.488374236,0.48759219,0.486802421,0.486072244,0.485351883,0.484624267,0.48390134,0.48321986,0.482530971,0.48183473,0.481170373,0.480524555,0.479871932,0.479212758,0.478605284,0.477991726,0.477371763,0.476736764,0.476082868,0.475422645,0.474755713,0.474049073,0.473327809,0.472599526,0.471890417,0.471268241,0.470639529,0.470004555,0.469535196,0.469164545,0.468790126,0.468417418,0.468229447,0.468039533,0.46784754,0.467671126,0.467515685,0.467358762,0.467200207,0.467167916,0.46715997,0.467152185,0.46725057,0.467684663,0.468123129,0.46856605,0.469321138,0.470253386,0.471195015,0.472158928,0.47338165,0.474617229,0.475865649,0.477286346,0.478914755,0.480561111,0.48222571,0.484729355,0.487396962,0.490093772,0.493197333,0.497400697,0.501646037,0.50593434,0.511053679,0.516617335,0.522232135,0.527934666,0.534167205,0.540456818,0.546804245,0.553293792,0.559937585,0.566645096,0.573417351,0.580382872,0.587431797,0.594547394,0.601662114,0.608665664,0.615729775,0.622854942,0.629307806,0.635477419,0.641698322,0.647829509,0.652587522,0.657388062,0.662231399,0.666479736,0.670112236,0.673779592,0.677482225,0.680521461,0.683508925,0.686523372,0.689371751,0.691796574,0.69424055,0.696703205,0.69869564,0.700500118,0.70231814,0.704105339,0.70554431,0.706996896,0.708463454,0.710002999,0.711614801,0.713244838,0.714893262,0.716878586,0.718913612,0.720970828,0.723120302,0.725437117,0.727774899,0.730133152,0.732615543,0.735156175,0.737716504,0.740324351,0.74313648,0.745973114,0.748834602
19-LF-K-PMIGAP-195/2,37.827,0.156169553,0.154374067,0.152646966,0.150987134,0.149369553,0.147792601,0.146577745,0.14563976,0.144721205,0.143821495,0.143529076,0.143262567,0.143000275,0.142969402,0.14332544,0.143677302,0.144025011,0.145122462,0.146427004,0.147716526,0.149221324,0.151767626,0.154279905,0.15675888,0.159793321,0.163208658,0.166579397,0.169906336,0.173474006,0.177008416,0.18050592,0.183828983,0.186906164,0.189957324,0.192982787,0.195369542,0.19757734,0.199766592,0.201709606,0.202714604,0.203711015,0.204698977,0.204872938,0.204514054,0.204157772,0.203799128,0.202586481,0.20138056,0.200181266,0.199066811,0.198070021,0.197077472,0.196089122,0.195795161,0.195659777,0.195524784,0.19549382,0.195834517,0.196174903,0.196514912,0.196810803,0.19708014,0.197349578,0.19763444,0.19848782,0.199341293,0.200194882,0.202000449,0.205062946,0.20812016,0.211172041,0.216554101,0.222384724,0.228199208,0.23424481,0.241066008,0.24787418,0.254669359,0.260239143,0.265129732,0.270017825,0.274738204,0.276069678,0.277400731,0.278731345,0.278758724,0.277198964,0.275641402,0.274086035,0.271588858,0.26893741,0.266292503,0.263676074,0.261128978,0.258588198,0.256053665,0.253739204,0.251536949,0.249337535,0.247160615,0.245257959,0.24335432,0.24144972,0.239718073,0.238179337,0.236637457,0.235092458,0.233846801,0.232641492,0.231433368,0.23026342,0.22919731,0.228129576,0.227060196,0.226061926,0.22509649,0.224130294,0.223197675,0.2226239,0.222049514,0.221474583,0.221232212,0.221334765,0.221437453,0.221540324,0.22217813,0.222879339,0.223581493,0.224375538,0.225383043,0.226391195,0.227399991,0.228620983,0.229931892,0.231243564,0.232639386,0.234728568,0.236820681,0.238915765,0.241663043,0.245035317,0.248413875,0.251798676,0.256154007,0.260603458,0.265058263,0.269477556,0.273813113,0.278150811,0.282490654,0.285631072,0.288315554,0.291002385,0.293369128,0.29353987,0.293710966,0.293882358,0.292894838,0.290884103,0.288868529,0.2868481,0.283812214,0.280699701,0.277579386,0.274387564,0.271062514,0.267726639,0.264379896,0.26106048,0.257739874,0.254404416,0.251061532,0.247746458,0.244415716,0.241069168,0.237866321,0.234780166,0.231682336,0.228572743,0.226154512,0.223759988,0.221357269,0.219443268,0.218404637,0.217361061,0.216312483,0.217319573,0.218968843,0.220627847,0.223081431,0.229420979,0.235786754,0.242178963,0.251844172,0.263936635,0.276029393,0.28812242,0.304013323,0.319950411,0.335843473,0.351625872,0.367265738,0.382875947,0.39845659,0.410941085,0.422595049,0.434263099,0.444973234,0.451535438,0.458123107,0.464736437,0.469025715,0.471720033,0.47442895,0.477152631,0.477634937,0.478114153,0.478596572,0.478522697,0.47761024,0.476690756,0.47576423,0.474050688,0.472135214,0.470205484,0.468224507,0.466090848,0.463944117,0.461784245,0.459973594,0.458381878,0.456781508,0.455180433,0.454021067,0.452854302,0.451680015,0.450377144,0.448897815,0.447406723,0.445903641,0.444013032,0.442026868,0.440023819,0.438076059,0.436355559,0.434621171,0.43287277,0.431756149,0.431005,0.430247699,0.429514496,0.429547612,0.429581042,0.429614779,0.429698122,0.429844815,0.429993002,0.430142788,0.430188345,0.430215058,0.430242075,0.430319271,0.430547403,0.430777609,0.431009902,0.431548308,0.432252307,0.432962083,0.433696688,0.43474667,0.435804583,0.43687055,0.437943498,0.439022961,0.440110145,0.441205111,0.442072441,0.442909348,0.443752121,0.444517834,0.445064614,0.445615267,0.446169716,0.446833095,0.447551718,0.448275195,0.449088133,0.450898673,0.452719022,0.454549373,0.457159696,0.460607274,0.464068063,0.467542172,0.471713619,0.475985792,0.480271433,0.484281467,0.487598955,0.490928603,0.494270521,0.49615596,0.497403018,0.4986552,0.499747704,0.499344606,0.498940145,0.49853441,0.497868031,0.4969437,0.496017186,0.495088385,0.494083555,0.493068107,0.492049596,0.490895001,0.489439709,0.48797657,0.486505447,0.484645342,0.482618983,0.480576485,0.478513481,0.476400629,0.474269309,0.472119412,0.470101544,0.468205242,0.466294044,0.464367717,0.462384923,0.460385369,0.458372167,0.456220616,0.453802558,0.45136785,0.448916262,0.446430758,0.443919609,0.441388267,0.438914903,0.436905495,0.434877274,0.43283008,0.431066048,0.429539463,0.427997708,0.42644044,0.424988246,0.423528353,0.422053831,0.420609588,0.419234304,0.417845628,0.41644335,0.415498234,0.414696495,0.413886746,0.41318679,0.413100899,0.413014105,0.412926428,0.412898581,0.412917656,0.412936943,0.412956436,0.412500273,0.412023596,0.411541796,0.410925366,0.410083315,0.409232597,0.408373192,0.407597864,0.406841873,0.406078412,0.405335366,0.404712985,0.404084521,0.403449834,0.402737933,0.401968265,0.401190922,0.400405816,0.399522355,0.398628843,0.397726118,0.39688926,0.396160277,0.395423783,0.394679584,0.394020269,0.393377914,0.392728789,0.392011782,0.391043478,0.390065105,0.389076495,0.387874346,0.386526515,0.385164983,0.383791469,0.382625826,0.3814486,0.380259527,0.379301952,0.378682404,0.378056577,0.377424552,0.376972904,0.376558724,0.37614018,0.375664226,0.374995232,0.374319159,0.373635944,0.372928304,0.372202827,0.371469831,0.370744612,0.370526888,0.370306854,0.370084689,0.370077945,0.370357003,0.370638788,0.370923292,0.371132334,0.371328188,0.371525813,0.371655886,0.371567609,0.371478323,0.371388205,0.371504541,0.37173655,0.371970832,0.372256198,0.373480082,0.374716762,0.375966383,0.377678263,0.379951837,0.382250285,0.384573746,0.387529591,0.390618881,0.393741981,0.397113788,0.401127409,0.405181985,0.409278381,0.414215603,0.419600546,0.42503428,0.43060324,0.437358817,0.444172178,0.451044157,0.458346578,0.46612862,0.473982459,0.481909115,0.49016958,0.498548689,0.507011971,0.515525698,0.524032741,0.532621736,0.541293902,0.549581645,0.557724904,0.565935502,0.574103397,0.581214687,0.588379892,0.595599607,0.602193799,0.608143109,0.614142412,0.620191899,0.625199929,0.630130493,0.63510724,0.639753566,0.643570136,0.647421186,0.651307189,0.654219476,0.656735706,0.659272202,0.661713459,0.663241703,0.664782984,0.666337047,0.667937877,0.669586667,0.671252119,0.672934525,0.675533274,0.67824135,0.680981084,0.683995302,0.687553598,0.691149644,0.694784426,0.698298886,0.701784107,0.705299008,0.708754646,0.711647475,0.714562261,0.71749914
19-LF-R-PMIGAP-220/2,52.363,0.217630038,0.214009541,0.210707614,0.20837449,0.206099445,0.203880294,0.202161803,0.200826553,0.199518753,0.198237494,0.197414759,0.196622632,0.195844843,0.195375604,0.195413971,0.195451776,0.195489116,0.196775677,0.198412702,0.20003173,0.201970658,0.205443127,0.20887239,0.212259245,0.216283584,0.220739566,0.225134907,0.229470674,0.233839092,0.238158476,0.242428384,0.246394404,0.249924506,0.25342474,0.256895548,0.259447524,0.26174846,0.264031053,0.266000388,0.266759826,0.267512328,0.26825806,0.268108199,0.267373616,0.266645252,0.265918565,0.264430203,0.262950644,0.261479677,0.26012222,0.258921416,0.257724922,0.256532723,0.255954127,0.255516283,0.255079648,0.25474189,0.254755215,0.254768506,0.254781761,0.254962762,0.255245663,0.255528525,0.255841583,0.25728648,0.258731838,0.260177742,0.262730417,0.266746034,0.270758457,0.274767615,0.281052921,0.287776942,0.294485978,0.301372874,0.308860853,0.316334001,0.32379239,0.329967224,0.335430106,0.340889336,0.346177641,0.348035405,0.349892318,0.351748478,0.352196192,0.350928815,0.34966362,0.348400565,0.345917799,0.34323456,0.340559077,0.337874832,0.335150763,0.332433621,0.329723461,0.327247034,0.324889312,0.322534183,0.320197011,0.318076187,0.315954225,0.313831163,0.311783354,0.309818565,0.307850279,0.305878614,0.304107208,0.302360968,0.300610698,0.298939542,0.297479827,0.296017339,0.294552021,0.293324079,0.292206122,0.29108708,0.290010398,0.289387843,0.288765004,0.288141846,0.287862942,0.287940856,0.288018832,0.288096878,0.288861344,0.289707015,0.290553906,0.291589277,0.293064433,0.294541398,0.296020155,0.297880362,0.299902526,0.301926662,0.304042306,0.306903302,0.309768219,0.312637016,0.316192232,0.320405885,0.324627644,0.32885759,0.334282238,0.339825321,0.345377871,0.35099124,0.356720663,0.362455209,0.368194884,0.372792305,0.3769555,0.381121775,0.384943116,0.386396099,0.38785132,0.389308831,0.389426147,0.388361121,0.387293401,0.3862231,0.383811854,0.38130225,0.378785311,0.376109301,0.373129709,0.370139998,0.367140126,0.364051207,0.360922192,0.357779646,0.354604476,0.351304935,0.347989691,0.344658744,0.341292521,0.337896199,0.334485754,0.331061074,0.328033187,0.32501293,0.321981688,0.319479795,0.317928186,0.316369741,0.31480452,0.315789267,0.317568312,0.319356673,0.322032242,0.329052423,0.336099271,0.343172883,0.353269344,0.365607371,0.377947034,0.390288457,0.404948238,0.419624965,0.434263331,0.448200239,0.461029662,0.473833612,0.486612149,0.495933601,0.504319719,0.512713976,0.520293252,0.524354452,0.528430466,0.532521416,0.53498873,0.536340759,0.537699786,0.539065831,0.538994873,0.538919355,0.538843364,0.538358871,0.537259732,0.536152374,0.535036811,0.533351623,0.531517758,0.529670389,0.527820963,0.52600378,0.52417523,0.522335214,0.5208697,0.519639558,0.518402594,0.517164679,0.516260141,0.51534967,0.514433142,0.513369842,0.512104654,0.510829059,0.509542972,0.507882171,0.506130047,0.504362707,0.50261538,0.500972108,0.499315642,0.497645922,0.496389202,0.495369842,0.494342334,0.493330939,0.492934664,0.492534774,0.49213123,0.491907395,0.491913915,0.491920596,0.491927358,0.492223671,0.492575853,0.492931617,0.493357155,0.493985692,0.494620063,0.495260341,0.495904305,0.49655254,0.497206175,0.497853661,0.498317483,0.498784798,0.499255561,0.499697245,0.500104018,0.500513455,0.500925723,0.501473721,0.502046022,0.502622187,0.503260109,0.50405901,0.504863806,0.505674425,0.506741906,0.507938277,0.509143211,0.51042566,0.512524862,0.514635435,0.516757387,0.519457273,0.522775294,0.526104648,0.52944546,0.533207795,0.537033772,0.540871003,0.544437164,0.547325801,0.550225606,0.553136796,0.554783632,0.555876495,0.556973979,0.557938228,0.557649567,0.557359888,0.557069248,0.556567851,0.555857721,0.555145963,0.554432352,0.553638319,0.552833655,0.552026299,0.551089117,0.549865258,0.548634419,0.547396713,0.545795031,0.544038878,0.542269061,0.54047786,0.538614838,0.53673615,0.534841662,0.533059498,0.531380045,0.529687332,0.527981024,0.526281379,0.524570918,0.522847793,0.521033799,0.519048289,0.517048449,0.515034054,0.512991708,0.510928793,0.508849711,0.506803613,0.505045035,0.503270944,0.501481036,0.499863237,0.498388486,0.496899312,0.495395287,0.494018834,0.492636293,0.49123982,0.489933313,0.488806608,0.487668667,0.48651945,0.485850968,0.485335419,0.484814672,0.484378195,0.484408675,0.4844395,0.484470642,0.484484916,0.484485912,0.484486993,0.484488012,0.484112512,0.483720608,0.483324619,0.482886122,0.482378746,0.48186619,0.481348459,0.481042199,0.480795521,0.480546391,0.480318448,0.480195903,0.480072038,0.479946993,0.479648139,0.479223097,0.478793788,0.478360202,0.477573494,0.476774975,0.475968737,0.475144373,0.474296188,0.47343935,0.472573907,0.471820376,0.471089648,0.470351144,0.469608816,0.468875421,0.468133964,0.46738441,0.466599597,0.465789077,0.464970009,0.464143278,0.4634142,0.462678121,0.461934643,0.4612467,0.460641419,0.460030342,0.459413133,0.458756417,0.45808565,0.457408085,0.456703082,0.455918446,0.4551259,0.45432515,0.453656658,0.45306585,0.452469164,0.451881266,0.451782786,0.451683224,0.451582737,0.45162687,0.451862874,0.452101316,0.452342246,0.452562872,0.452781176,0.453001607,0.453219334,0.453423417,0.453629395,0.453837393,0.45427123,0.454832879,0.455400202,0.456002353,0.457170939,0.458352312,0.459546406,0.461023178,0.462842647,0.46468273,0.466543551,0.469085468,0.471764406,0.47447154,0.477529289,0.481526799,0.485562107,0.489635636,0.494722142,0.50034477,0.506017379,0.511813991,0.518637911,0.525524541,0.53247461,0.53961912,0.546976034,0.554403417,0.56190229,0.569205526,0.576539687,0.583942417,0.591243655,0.598172807,0.605162177,0.612212127,0.618708584,0.624976331,0.631295465,0.637561372,0.642815172,0.648112706,0.653454042,0.658259958,0.662512436,0.666802351,0.671129625,0.674638496,0.67808197,0.681556518,0.684813195,0.687521369,0.690253688,0.693010163,0.69522833,0.697231381,0.699251769,0.701235747,0.702802821,0.704384112,0.705980021,0.707663768,0.709433831,0.711221941,0.713028554,0.715366033,0.717773991,0.720207813,0.722786031,0.725639252,0.728520278,0.731429914,0.734306331,0.737184688,0.740087374,0.742985641,0.745714189,0.748465587,0.751240496
19-LF-K-PMIGAP-163/1,115.811,0.246705294,0.243456716,0.240407548,0.237827484,0.235312064,0.232858919,0.230916333,0.229364932,0.227845599,0.226357293,0.225575455,0.22483143,0.224100053,0.223716294,0.223907963,0.224097137,0.224283923,0.225683859,0.227422358,0.229141112,0.231178018,0.234746312,0.238268335,0.241745016,0.245912153,0.250549852,0.255126008,0.259641878,0.264212348,0.268734788,0.273208309,0.277320218,0.280904653,0.284458558,0.287982429,0.290457652,0.29264796,0.294819767,0.296680866,0.297343735,0.298000661,0.298651644,0.298484499,0.297782937,0.297086904,0.296392014,0.294977262,0.293570119,0.292170623,0.290849395,0.289635516,0.288426342,0.287221742,0.286569571,0.286044542,0.285521161,0.285103116,0.285058174,0.285013305,0.284968449,0.285129904,0.285416562,0.285703267,0.286020292,0.287465808,0.288912136,0.290359145,0.292901834,0.296892038,0.300878564,0.304861332,0.311173868,0.317935278,0.324681091,0.331634904,0.339287696,0.346925706,0.354548942,0.360896527,0.366536014,0.372171178,0.377626729,0.379485873,0.381343693,0.383200184,0.383561654,0.38210334,0.38064768,0.379194732,0.376508399,0.373619194,0.370737692,0.367889844,0.365123382,0.362363102,0.359608958,0.357234357,0.355052589,0.352872991,0.350724342,0.348977208,0.347229404,0.345481044,0.343887533,0.342466943,0.341044229,0.339619323,0.338476842,0.337372714,0.336266137,0.335221797,0.334342333,0.333461276,0.332578518,0.331793934,0.331054736,0.330314786,0.329600109,0.329157319,0.328714173,0.328270814,0.328113917,0.328253914,0.328394031,0.328534313,0.329240997,0.330014883,0.330789862,0.331685989,0.332864474,0.334044331,0.335225511,0.336675125,0.338238623,0.339803575,0.34147187,0.343988492,0.346508205,0.349031065,0.352400885,0.356582044,0.360770258,0.364965513,0.370507672,0.376181073,0.381862489,0.387549551,0.393237098,0.398928989,0.404625176,0.408969145,0.412798876,0.416631487,0.420108119,0.421141443,0.422176429,0.423213053,0.422997043,0.421675844,0.420351547,0.419024069,0.416558518,0.41400843,0.411451196,0.408783461,0.405906504,0.403019665,0.400122926,0.397232703,0.39433603,0.391427098,0.388507057,0.385582248,0.382644298,0.379693233,0.376728508,0.373751731,0.370763519,0.367763758,0.365074276,0.362389662,0.35969527,0.357529037,0.356309848,0.355084865,0.353854052,0.355358571,0.35771784,0.360090403,0.363399556,0.371280885,0.379193272,0.387136994,0.398052734,0.4111693,0.424286992,0.437405901,0.452379684,0.467359149,0.482300325,0.496371595,0.509064737,0.521735997,0.534385464,0.543493016,0.551643918,0.559805864,0.567177209,0.571124412,0.575087438,0.57906616,0.581482486,0.582825137,0.584174963,0.585532056,0.585502681,0.585469264,0.585435572,0.585032435,0.584073433,0.583107378,0.582134222,0.580667795,0.579072813,0.577466049,0.575841466,0.574183816,0.572515825,0.570837281,0.569388712,0.568083812,0.566771584,0.565456258,0.564369907,0.563276587,0.562176187,0.56100976,0.559753164,0.558486684,0.557210156,0.555794167,0.554338907,0.5528712,0.551435947,0.550140095,0.548833633,0.547516436,0.546466708,0.545569767,0.544665373,0.543767909,0.54322917,0.542685562,0.542136801,0.541701976,0.541413767,0.54112259,0.540828534,0.540742512,0.54069426,0.540645533,0.540639956,0.540765709,0.540892579,0.541020533,0.541171943,0.541336289,0.541502065,0.541672918,0.541906485,0.542141674,0.542378696,0.542745264,0.543263472,0.543785388,0.54431099,0.545115629,0.545968476,0.546827445,0.547722151,0.548703331,0.549691515,0.550686914,0.551792349,0.552955106,0.554125669,0.55536226,0.5572886,0.559224955,0.5611713,0.563712006,0.566889416,0.570078135,0.573278327,0.577078971,0.580967234,0.584867982,0.588579221,0.591810944,0.595055649,0.598313498,0.600436998,0.602065104,0.603700395,0.605199802,0.605400113,0.605601264,0.605803058,0.605678889,0.605231519,0.604783165,0.604333754,0.603647964,0.602936225,0.602222572,0.601385955,0.600277547,0.599163448,0.598043739,0.596625318,0.595079758,0.593522478,0.591943607,0.590278896,0.588599993,0.586906759,0.585274006,0.583696628,0.58210651,0.580503543,0.578871168,0.577225543,0.575567998,0.573830504,0.571943054,0.570041947,0.568127171,0.566170589,0.564188427,0.562190197,0.560214029,0.558456966,0.556683685,0.554894272,0.553277157,0.55180349,0.550315247,0.54881229,0.547547664,0.546284376,0.545008402,0.543842548,0.54289249,0.541932828,0.540963555,0.540371601,0.539898859,0.539421337,0.538999908,0.538895585,0.538790081,0.538683389,0.538568532,0.53844681,0.538323817,0.538199446,0.537867774,0.537525852,0.537180529,0.536810816,0.536401906,0.535988913,0.535571705,0.535195226,0.534827861,0.534456707,0.534054732,0.533525194,0.532990239,0.532449772,0.531698475,0.530793261,0.529879054,0.528955738,0.527883138,0.526798629,0.525703805,0.52470247,0.523852891,0.522995032,0.522128704,0.521529746,0.520995207,0.520455326,0.519922064,0.519433222,0.518938838,0.518439162,0.517853092,0.517207465,0.516554829,0.515894758,0.515200722,0.514499416,0.513790716,0.513119829,0.512506587,0.511887369,0.51126204,0.510689044,0.510123888,0.509553514,0.50899264,0.508478542,0.507959893,0.507436239,0.507085292,0.506837716,0.506587763,0.506349219,0.50657017,0.506793514,0.507019302,0.507388936,0.507948202,0.508513582,0.509085387,0.509654174,0.51022693,0.510805875,0.511364642,0.511845376,0.512330907,0.512821375,0.513402298,0.514036267,0.514676344,0.515344753,0.516441347,0.517549018,0.518667914,0.520106253,0.521931677,0.523776186,0.525639636,0.528343134,0.531210714,0.534107624,0.537358263,0.541557832,0.545799223,0.55008293,0.555219497,0.56081457,0.566464748,0.572223445,0.578740886,0.585321948,0.591967709,0.598752276,0.605683792,0.612682123,0.619747653,0.626654157,0.633591957,0.640592862,0.647501954,0.654073565,0.660700587,0.6673841,0.673479542,0.679329565,0.68522758,0.691056636,0.695751297,0.700486191,0.705261967,0.709424214,0.712952055,0.716512519,0.720106222,0.72282914,0.72547504,0.728145279,0.730651653,0.732742814,0.734851348,0.736978001,0.738869673,0.74067127,0.742487495,0.744302659,0.746006776,0.747726778,0.74946246,0.751228215,0.753026034,0.754843986,0.756681959,0.758586266,0.760516178,0.762468488,0.764436818,0.766413168,0.768408012,0.770421914,0.772481301,0.774566561,0.776667871,0.77881136,0.781145857,0.783498708,0.785870287
19-LF-K-PMIGAP-171/1,32.134,0.219260591,0.2165288,0.213942571,0.211666678,0.209448487,0.207285754,0.205561382,0.204173255,0.202814306,0.201483634,0.200734157,0.200017287,0.199312319,0.198925518,0.199065107,0.199202979,0.199339175,0.200690705,0.202382145,0.204054799,0.206042792,0.209546292,0.213005421,0.216421034,0.220458212,0.224919185,0.229323085,0.233671099,0.237966752,0.242217439,0.246423878,0.250294364,0.253673786,0.257025352,0.2603494,0.262771463,0.264947142,0.267105234,0.268973514,0.269724733,0.27046946,0.271207728,0.271101352,0.270442953,0.269789679,0.269137293,0.267755782,0.266382447,0.265017336,0.263788416,0.262749466,0.261714846,0.260684477,0.260318653,0.260104685,0.259891322,0.259770518,0.259979936,0.26018917,0.260398179,0.260692187,0.261038018,0.261383971,0.261756713,0.263125666,0.26449491,0.265864448,0.268313924,0.272190374,0.276062608,0.279930628,0.28607801,0.292666781,0.2992427,0.306004458,0.313389258,0.320763108,0.328126089,0.33423406,0.339644848,0.345052302,0.350293773,0.352198927,0.354102764,0.356005267,0.356559254,0.355471394,0.354385352,0.353301194,0.351044231,0.348593424,0.346148778,0.343678625,0.341123945,0.33857538,0.33603285,0.333659577,0.331372658,0.32908854,0.326819006,0.324714577,0.322609222,0.320502997,0.318477353,0.316540432,0.314599964,0.312655964,0.310968861,0.309315396,0.307658225,0.306099107,0.304800148,0.30349912,0.302196054,0.30112184,0.300153603,0.299184574,0.298247925,0.297658584,0.297068668,0.296478284,0.296171937,0.296160004,0.296148033,0.29613609,0.296799057,0.297541682,0.298285148,0.299239292,0.300685519,0.302132841,0.303581272,0.305435116,0.307461081,0.309489068,0.311600658,0.314392999,0.317190041,0.319991723,0.323415209,0.327434386,0.331461215,0.33549562,0.340614767,0.345839401,0.351070349,0.356328718,0.361636287,0.366947176,0.372261415,0.376402611,0.38009903,0.383799394,0.387166572,0.388240197,0.389315936,0.390393771,0.390254189,0.389040276,0.3878235,0.386603818,0.384256693,0.381827006,0.379391509,0.376803793,0.37392444,0.371036307,0.368139271,0.365031931,0.361842731,0.358640346,0.355396055,0.351973195,0.348535205,0.345081946,0.341701546,0.338379551,0.335044964,0.33169781,0.328993832,0.326309754,0.323615746,0.321463589,0.320282862,0.319096323,0.317903815,0.319103349,0.321050194,0.323008396,0.325813758,0.332757717,0.33972911,0.346728196,0.356655229,0.368753419,0.380854458,0.392958293,0.407293469,0.42165257,0.435982477,0.449603432,0.462101484,0.474586345,0.487057947,0.496107595,0.504234138,0.512374041,0.51973106,0.523687323,0.527658768,0.531645443,0.534115793,0.535544662,0.536980891,0.538424534,0.538507568,0.538587388,0.538667616,0.538318255,0.537322324,0.536318972,0.535308145,0.533661512,0.531850669,0.530026798,0.528192623,0.52635732,0.524510979,0.522653557,0.521157491,0.519888248,0.518611839,0.5173344,0.51638813,0.515435529,0.514476442,0.513396114,0.512149273,0.510892264,0.509624863,0.508070218,0.506443835,0.504803551,0.503194528,0.501724446,0.500242546,0.498748841,0.497622528,0.496707104,0.495784221,0.494873825,0.494464345,0.494051141,0.493634147,0.493366087,0.49328933,0.493211801,0.493133531,0.493334709,0.493589177,0.49384618,0.49417383,0.494709702,0.495250528,0.495796164,0.496350847,0.496912303,0.497478357,0.498037723,0.498417988,0.498801027,0.499186935,0.499539833,0.499853406,0.500169069,0.500487071,0.500954493,0.501447912,0.501944923,0.502528759,0.503342333,0.504161956,0.504987777,0.506142459,0.507461504,0.508789806,0.510192061,0.512361144,0.514541352,0.516732634,0.519387499,0.522537223,0.52569701,0.528866796,0.53232123,0.535820957,0.539331157,0.542616619,0.54533977,0.548074285,0.550820111,0.55252184,0.553766988,0.55501787,0.556146223,0.556110291,0.556074292,0.556038104,0.555705714,0.555079928,0.554452705,0.553824108,0.553026898,0.552210135,0.55139089,0.550495544,0.549432477,0.548363295,0.547287961,0.545978034,0.544566628,0.543143912,0.541687125,0.540051683,0.538402707,0.536739734,0.535039478,0.533304796,0.531557294,0.529796829,0.527972226,0.526131183,0.524277617,0.522392277,0.520455041,0.518503823,0.51653841,0.514638591,0.512752245,0.510850529,0.508974575,0.50733863,0.505687873,0.504022266,0.502506509,0.501115416,0.499711042,0.498293027,0.497062679,0.495831303,0.494587548,0.493417389,0.49239425,0.491360765,0.490316861,0.4895545,0.488879025,0.488196695,0.487572625,0.487286744,0.486997871,0.486705994,0.486536337,0.486461924,0.486386805,0.4863109,0.486223594,0.486135127,0.486045718,0.485913968,0.485710892,0.485505931,0.485298705,0.48502415,0.484727914,0.484428773,0.48411884,0.483770567,0.483418697,0.483063364,0.482668962,0.482245575,0.481817746,0.481385682,0.480818182,0.480243708,0.479663362,0.479002502,0.478218732,0.477427247,0.47662805,0.475711455,0.474757552,0.473793928,0.472830179,0.471895431,0.470950679,0.469995845,0.46916593,0.468415911,0.467657884,0.466893628,0.466333498,0.465767662,0.465196015,0.464637481,0.46410003,0.4635575,0.463009499,0.462398356,0.461768198,0.461131718,0.460486933,0.459828707,0.459163777,0.458492124,0.457904859,0.457366488,0.45682263,0.456280801,0.455994729,0.455705598,0.455413467,0.455260905,0.455293983,0.4553275,0.455361262,0.455657117,0.456006725,0.456359958,0.456760964,0.457304891,0.457854388,0.458409209,0.459004473,0.459624991,0.460251572,0.460894004,0.461724772,0.462564325,0.463412461,0.464571403,0.466107814,0.467661144,0.469231701,0.471803669,0.474567536,0.477361544,0.480516321,0.484637542,0.488800034,0.493004414,0.497964907,0.503330678,0.508745908,0.514272332,0.520665885,0.527117999,0.533629423,0.54050254,0.547776749,0.555120719,0.562535577,0.570053303,0.577646275,0.585311095,0.592815172,0.599790409,0.606825976,0.613922485,0.620168829,0.626048794,0.631977516,0.637850854,0.642717923,0.647628355,0.652582688,0.657171071,0.661381064,0.665631311,0.669922587,0.673452658,0.676923646,0.680425986,0.683626768,0.686083921,0.688560165,0.691055497,0.692950936,0.694603464,0.696268351,0.697916222,0.699335669,0.700768515,0.70221519,0.703742285,0.705349214,0.706974144,0.708617437,0.710435117,0.712286225,0.714157688,0.716134357,0.718308598,0.720502386,0.722715515,0.725327755,0.728103303,0.730900405,0.733775361,0.737047091,0.740347352,0.743676372
19-LF-K-PMIGAP-187/1,43.823,0.193584253,0.191235551,0.188992464,0.186912609,0.184885428,0.182909024,0.181317703,0.180022008,0.178753548,0.177511524,0.176847837,0.176215263,0.175593227,0.175257517,0.175395649,0.175532093,0.175666873,0.176802126,0.178217006,0.179616167,0.181269447,0.184145846,0.186985819,0.189790066,0.193094216,0.196738913,0.200337047,0.203889484,0.207396205,0.210866193,0.214300039,0.217456944,0.220208718,0.222937834,0.225644522,0.227599355,0.229349225,0.23108495,0.232579812,0.233144909,0.233705099,0.234260482,0.23412216,0.233530563,0.232943637,0.232357838,0.231178212,0.230005627,0.228840028,0.227775138,0.226850183,0.225929021,0.225011707,0.224589192,0.224280066,0.223971732,0.223739132,0.223775574,0.223811966,0.223848342,0.224070039,0.224404455,0.224738994,0.225105391,0.226654935,0.228204832,0.229755075,0.232355367,0.236342946,0.240326197,0.244305114,0.250299428,0.256683103,0.263054305,0.269559373,0.276520617,0.283471572,0.290412242,0.296179329,0.301294528,0.306406546,0.31136733,0.313290919,0.315213119,0.317134036,0.317770686,0.316843672,0.315918268,0.314994411,0.312794769,0.310383696,0.307978669,0.305522681,0.302909393,0.300302376,0.297701533,0.295391694,0.293230008,0.291070997,0.288948769,0.287304,0.285658507,0.284012296,0.282504475,0.28115091,0.279794863,0.278436345,0.277145783,0.275862517,0.274576391,0.273311393,0.272106176,0.270899059,0.26969001,0.268698156,0.267806943,0.26691496,0.266072253,0.265752727,0.265432888,0.26511279,0.265101319,0.265409879,0.265718811,0.266028136,0.26675203,0.267525157,0.268299159,0.269156876,0.270209292,0.271262539,0.272316584,0.273639357,0.275076344,0.27651472,0.278051222,0.280392832,0.282738331,0.285087769,0.288182829,0.291992071,0.295808552,0.299632187,0.304610711,0.309700998,0.31479744,0.319881774,0.324931472,0.3299843,0.335040332,0.33882208,0.342120078,0.345421589,0.34839209,0.349085776,0.349780835,0.350477242,0.350057475,0.348652571,0.347244354,0.345832782,0.343516159,0.341132343,0.338742779,0.33625368,0.333575318,0.330888732,0.328193893,0.325323636,0.322384259,0.31943269,0.316441828,0.313282553,0.310109311,0.306921976,0.303832198,0.300820996,0.297798429,0.294764456,0.292417379,0.290093471,0.28776091,0.285955056,0.285092827,0.284226318,0.283355487,0.284758457,0.286872911,0.288999666,0.291948901,0.298910606,0.305899838,0.312916791,0.322858051,0.334967779,0.347080305,0.359195625,0.373671771,0.388174596,0.40264792,0.416457158,0.429216575,0.441962486,0.45469488,0.463994436,0.472368313,0.480755972,0.488338577,0.492424419,0.496525835,0.500643016,0.503170305,0.50460544,0.506047896,0.507497864,0.507505124,0.507508467,0.50751178,0.507063926,0.505937122,0.504801988,0.503658389,0.501858803,0.499889235,0.497905534,0.495915198,0.493941237,0.49195538,0.489957559,0.488350899,0.486989784,0.485620965,0.484251014,0.483237342,0.482216832,0.481189379,0.480038378,0.478717829,0.477386453,0.476044122,0.474415771,0.472715459,0.471000659,0.469317785,0.467777771,0.466225457,0.464660749,0.46343896,0.462413426,0.461379562,0.460354689,0.459764599,0.459169044,0.458568036,0.458110776,0.457838542,0.457563559,0.457285774,0.457341807,0.457459937,0.457579216,0.45776914,0.458169881,0.458574324,0.458982366,0.459306432,0.459586698,0.459869256,0.460135735,0.460106319,0.460076715,0.460046896,0.460044912,0.460075741,0.460106728,0.460137991,0.460627297,0.461190921,0.461758576,0.462485421,0.463637385,0.464797923,0.465967267,0.467475859,0.469154986,0.470845984,0.472610114,0.475103893,0.477610473,0.480129766,0.483177262,0.486788573,0.490411382,0.494045697,0.498124634,0.50227098,0.50642975,0.510345464,0.513652016,0.516972315,0.52030639,0.52237468,0.523889424,0.525411123,0.526785523,0.526759025,0.526732431,0.526705684,0.526370339,0.525729186,0.525086566,0.524442539,0.523661096,0.522863307,0.522063092,0.521154956,0.520008259,0.518854944,0.517694972,0.516211224,0.514589197,0.512954134,0.511292031,0.50951372,0.507720597,0.505912348,0.504170584,0.502490093,0.500797083,0.499091534,0.497370741,0.495637988,0.493893415,0.492067593,0.490088781,0.488095581,0.48608791,0.484057604,0.482007972,0.479941583,0.477907712,0.476162036,0.474400582,0.472623329,0.471049843,0.469646948,0.468230619,0.466800626,0.465578901,0.464357359,0.463123651,0.461981655,0.461020491,0.460049639,0.459068992,0.458490329,0.458039379,0.457583831,0.457196351,0.457188671,0.457180942,0.457173135,0.457130328,0.457059933,0.45698887,0.456917055,0.456456549,0.455978542,0.455495528,0.454953752,0.454315502,0.453670842,0.45301952,0.452567713,0.452171001,0.451770296,0.451400166,0.451184081,0.450965754,0.45074529,0.450377975,0.449903817,0.449424804,0.448940971,0.448053331,0.447152424,0.446242498,0.445292685,0.444285319,0.443268101,0.442240924,0.441393655,0.440586665,0.439771471,0.438982765,0.43832543,0.437661061,0.436989592,0.436288682,0.435565623,0.434834842,0.434096036,0.433326631,0.432549384,0.431764169,0.431031925,0.430379407,0.429720566,0.429055082,0.428525467,0.428022614,0.427514747,0.427015805,0.426561451,0.426102336,0.425638643,0.425223461,0.424836043,0.424444638,0.4240572,0.42393467,0.423810829,0.423685654,0.423716671,0.423954739,0.424195287,0.424438258,0.42486527,0.425331719,0.425802997,0.426296312,0.426848753,0.427406722,0.427970218,0.428647893,0.429392099,0.43014367,0.430923801,0.432115286,0.433319201,0.434535685,0.436047904,0.437918774,0.43981031,0.441722755,0.444326518,0.447070289,0.449844038,0.452919024,0.456791849,0.460703483,0.46465458,0.469499291,0.474818928,0.480187478,0.485689357,0.492357404,0.499086522,0.50587743,0.513022788,0.520560426,0.528170482,0.535853836,0.543426729,0.551045286,0.558735935,0.566267292,0.573273114,0.580339574,0.587467178,0.593937892,0.600132711,0.606378825,0.612580383,0.617860442,0.623187759,0.628562581,0.633433778,0.637784116,0.642176158,0.646610489,0.650074971,0.653456046,0.6568676,0.660037801,0.662604559,0.665191406,0.667798209,0.670068794,0.672208557,0.674364695,0.676513351,0.67848558,0.680476525,0.682486479,0.684452661,0.68638047,0.68832996,0.690301373,0.692310991,0.694343679,0.696398533,0.698577635,0.70099184,0.703427717,0.705885016,0.708710189,0.711687784,0.714688483,0.717738135,0.720983277,0.724256648,0.727558682
19-LF-K-PMIGAP-167/2,42.701,0.172000449,0.169296987,0.166767115,0.164668215,0.162621903,0.160626258,0.159035611,0.157755455,0.156501717,0.155273593,0.154568663,0.153893833,0.153230475,0.152849676,0.152935467,0.153020146,0.15310378,0.15422928,0.155646154,0.157046939,0.158719454,0.161697196,0.164636325,0.167537616,0.171010926,0.174874038,0.17868594,0.18244757,0.186281819,0.190076131,0.193829441,0.197333195,0.200477908,0.203595899,0.206687479,0.209014271,0.211129977,0.213227782,0.215054894,0.215843271,0.216624527,0.217398729,0.217355349,0.216777654,0.216204454,0.215631378,0.214319583,0.213014903,0.211717259,0.210524926,0.209479005,0.208437095,0.207399161,0.20693234,0.206596501,0.206261685,0.205996189,0.20597617,0.205956181,0.205936186,0.205975318,0.206050261,0.206125251,0.206228988,0.207403973,0.208579579,0.209755797,0.212083466,0.21593297,0.219778881,0.22362115,0.229823169,0.236480226,0.243121966,0.249923029,0.25726738,0.264597506,0.271913492,0.277824173,0.282954768,0.288081366,0.293033739,0.294492219,0.295949691,0.297406125,0.297521475,0.296004585,0.294490465,0.292979162,0.290400997,0.287647928,0.2849022,0.282158379,0.279405813,0.276659421,0.273919122,0.271416039,0.269033598,0.26665352,0.264300485,0.262291766,0.260282364,0.2582723,0.256438818,0.254802488,0.253163674,0.251522374,0.25014848,0.24881032,0.247469236,0.246171014,0.244988493,0.24380378,0.242616846,0.241546902,0.240530992,0.239514074,0.238533914,0.237948815,0.237363323,0.236777457,0.236529967,0.236633143,0.2367364,0.23683979,0.237534835,0.238299963,0.23906618,0.239962636,0.241162613,0.242363982,0.243566698,0.245064842,0.246688301,0.248313223,0.250034329,0.252543523,0.255055847,0.257571272,0.26084004,0.264830609,0.268827909,0.272831918,0.278085598,0.283461191,0.288844398,0.294266856,0.299761938,0.30526123,0.310764694,0.315044987,0.318860275,0.322678455,0.326145308,0.327200653,0.328257663,0.329316332,0.32907226,0.327678815,0.326282038,0.324881948,0.322282527,0.319594097,0.316898127,0.314086164,0.311054681,0.308012744,0.304960432,0.301863338,0.298741511,0.295606385,0.292449166,0.289228124,0.285992651,0.28274271,0.279546825,0.27639402,0.273229105,0.270052013,0.267430626,0.264825629,0.262211124,0.260122013,0.258974724,0.257821982,0.256663773,0.257885288,0.259850049,0.261825919,0.264657418,0.271670524,0.278711275,0.285779876,0.295936759,0.308382968,0.320830315,0.333278757,0.348464008,0.363675328,0.378847657,0.393479782,0.407268851,0.421034192,0.434775829,0.44513099,0.454573949,0.464029686,0.472619946,0.477460433,0.48232023,0.487199362,0.490202691,0.491917318,0.493641055,0.49537409,0.495347785,0.495316405,0.495284777,0.494784979,0.493580804,0.492367751,0.491145753,0.489311515,0.48731759,0.485308887,0.483287616,0.48126144,0.479222552,0.477170836,0.475452103,0.473942055,0.472423576,0.47090179,0.469663203,0.468416697,0.467162116,0.465769628,0.464187885,0.462593613,0.460986685,0.459107285,0.457157,0.45519009,0.453281436,0.451609311,0.449923508,0.448223841,0.447006831,0.446067928,0.44512117,0.444189719,0.443838655,0.443484402,0.443126815,0.442876061,0.442762495,0.442647782,0.442531889,0.442564239,0.44262424,0.442684816,0.442811418,0.443136175,0.44346382,0.44379433,0.444266015,0.44481478,0.445367987,0.445931085,0.446586007,0.447245776,0.447910558,0.448610053,0.449349198,0.450093594,0.45084336,0.451625763,0.452417956,0.453215796,0.454017749,0.454821034,0.455630104,0.456445077,0.457469617,0.458599743,0.459737461,0.460962766,0.463133633,0.465315808,0.467509211,0.470371704,0.473951051,0.477543115,0.481148057,0.48525943,0.48944719,0.493648394,0.497585419,0.500858986,0.504145708,0.507445737,0.509471076,0.510938691,0.512412813,0.513742538,0.513701978,0.513661328,0.513620512,0.513219288,0.512460882,0.511700732,0.510938818,0.509834997,0.508693343,0.507548465,0.506266246,0.504680985,0.503087642,0.501486224,0.499680271,0.497782926,0.495871278,0.493957164,0.492116289,0.490259709,0.488387278,0.486579825,0.484831705,0.483069625,0.48129321,0.479359429,0.477400361,0.475427087,0.47336115,0.471121841,0.468866374,0.466594634,0.464399526,0.462220563,0.460023997,0.457866488,0.456041577,0.454199964,0.452341462,0.450603943,0.448965922,0.447311769,0.445641292,0.444055604,0.442459709,0.440847846,0.439364146,0.438132847,0.436889135,0.43563294,0.434933694,0.434411862,0.433884782,0.433427164,0.433360032,0.433292091,0.433223475,0.433039244,0.432763904,0.432485692,0.432204433,0.431545582,0.430867554,0.430182674,0.429526601,0.428924742,0.42831684,0.427702662,0.427415689,0.427222325,0.427026927,0.426841203,0.426706732,0.426570842,0.426433676,0.426025319,0.425420387,0.42480942,0.424192396,0.423167715,0.422128637,0.42107963,0.420049922,0.41905584,0.418052111,0.417038456,0.416238516,0.415487695,0.414729116,0.41397623,0.413270199,0.41255642,0.41183486,0.411051303,0.410223722,0.409387004,0.40854139,0.407716053,0.406881997,0.406039194,0.405243197,0.404518686,0.403787157,0.40304836,0.402354055,0.401665013,0.400969554,0.400284031,0.399649736,0.399009767,0.398363707,0.39789866,0.397541636,0.397181087,0.396829177,0.396880493,0.396932442,0.396984946,0.3971186,0.3973596,0.397603197,0.397849551,0.398015004,0.39816581,0.398318292,0.39846927,0.398611707,0.398755612,0.398900993,0.399291262,0.399819545,0.400353062,0.400926418,0.402168097,0.403422404,0.404689494,0.406354059,0.408500886,0.410669977,0.412861521,0.41593714,0.419187456,0.422470928,0.426088701,0.43059291,0.435142014,0.439736607,0.445105002,0.450892885,0.456737692,0.462700206,0.469517162,0.476400781,0.483352084,0.490666979,0.498381173,0.506169472,0.514032815,0.522246101,0.530572354,0.538974491,0.54735273,0.555546865,0.56381021,0.572143861,0.579702074,0.586934766,0.594226745,0.601427052,0.607158324,0.612938823,0.618769172,0.623942486,0.628436497,0.632972038,0.637549948,0.641275106,0.644933267,0.648625295,0.652091575,0.654986556,0.65790571,0.660849641,0.66326453,0.665468328,0.667690022,0.669893174,0.671822701,0.673770196,0.675735544,0.677851714,0.680116025,0.682405553,0.684720446,0.687421179,0.690184424,0.692979488,0.69583833,0.698794299,0.701778089,0.70479044,0.707822187,0.710874136,0.71394936,0.717072506,0.720382198,0.723718267,0.727080688
19-LF-R-PMIGAP-229/2,44.815,0.231137047,0.227508841,0.224216227,0.221980917,0.219801247,0.217675126,0.215994472,0.214655203,0.213343407,0.212058298,0.211113072,0.210196381,0.209296278,0.208733276,0.208723837,0.208714581,0.208705394,0.210103329,0.211896447,0.213669846,0.215772467,0.219457666,0.223096965,0.226691253,0.230812637,0.235287275,0.239700939,0.244054819,0.248219729,0.252334742,0.256402564,0.260158313,0.263463826,0.266741319,0.269991268,0.272450278,0.274691553,0.276915057,0.27885458,0.279701099,0.280539941,0.281371239,0.281316974,0.280684242,0.280056867,0.279430068,0.278001422,0.276581091,0.275169099,0.273871132,0.272730859,0.271594689,0.270462544,0.26997339,0.269631582,0.269290681,0.269047919,0.269154189,0.269260289,0.269366155,0.269583377,0.269868287,0.270153076,0.270463621,0.271737027,0.273010838,0.274285076,0.276585796,0.280243365,0.283897947,0.287549628,0.293415357,0.299708408,0.305987392,0.312476565,0.319667789,0.326844807,0.334007602,0.340061594,0.345500677,0.350936128,0.356209857,0.358240916,0.360271044,0.362300344,0.362914225,0.361804423,0.360696451,0.359590464,0.357160381,0.354512099,0.35187139,0.349215992,0.346503801,0.343798507,0.341100157,0.338704119,0.336461531,0.334221372,0.332003559,0.330063991,0.328123376,0.326181762,0.324287164,0.322443973,0.320597532,0.318747886,0.317039568,0.315348067,0.313652712,0.312050639,0.310696603,0.309339989,0.307980755,0.306913527,0.305981696,0.305048972,0.304152286,0.303642251,0.303131946,0.302621345,0.302352986,0.302335608,0.302318241,0.302300815,0.302864457,0.303496759,0.304129953,0.304977663,0.306326531,0.30767705,0.309029171,0.310858401,0.312889879,0.314923374,0.317046825,0.319903209,0.322763509,0.325627686,0.329114292,0.333197976,0.337289552,0.341389024,0.346642981,0.352011429,0.357388995,0.362855973,0.368500176,0.374149379,0.379803676,0.384373456,0.388531009,0.392691679,0.396503718,0.39792191,0.399342274,0.400764925,0.400818995,0.399665738,0.39850958,0.397350614,0.394878997,0.392310784,0.389735107,0.387024728,0.384058519,0.381082149,0.378095714,0.375033007,0.371934712,0.36882302,0.365676772,0.362394796,0.359097242,0.355783979,0.352460165,0.349126351,0.345778712,0.342417063,0.339504182,0.336601784,0.333688786,0.331270235,0.329739528,0.328202131,0.326658,0.327471346,0.329018656,0.330574126,0.332990962,0.33963014,0.346294501,0.35298421,0.362803664,0.374945157,0.387088343,0.399233179,0.41407963,0.428951569,0.443784682,0.458006088,0.471266136,0.484499815,0.497707273,0.507399294,0.516140581,0.524890366,0.532787888,0.537006557,0.541240659,0.545490272,0.548068289,0.549498188,0.550935487,0.5523803,0.552426789,0.552469629,0.552512743,0.552142809,0.55115121,0.550152145,0.549145729,0.547470387,0.545622297,0.543760506,0.541875733,0.539943876,0.537999931,0.5360438,0.53448701,0.533181216,0.531868122,0.530555614,0.529685383,0.52880943,0.527927666,0.526915288,0.525723386,0.524521666,0.523310127,0.521686756,0.51996441,0.518227212,0.516506688,0.514878772,0.513237787,0.511583678,0.510383748,0.509445373,0.508499502,0.507572173,0.507304821,0.507034973,0.506762655,0.506635669,0.506694946,0.506754817,0.506815311,0.507025213,0.507264399,0.507506009,0.507791121,0.508202356,0.508617399,0.509036317,0.509495515,0.50997799,0.510464486,0.510953334,0.511418573,0.511887311,0.512359451,0.512878557,0.513451875,0.51402898,0.514610032,0.515384467,0.516193437,0.517007997,0.517865189,0.518829071,0.519800034,0.520778091,0.521874685,0.523032805,0.524199219,0.525423701,0.52723943,0.529064944,0.530900371,0.533256461,0.536169822,0.539093077,0.542026335,0.545496299,0.549043878,0.552601967,0.555979152,0.558900815,0.56183378,0.564778146,0.566647747,0.56804765,0.569453433,0.570730761,0.570787354,0.57084405,0.570900949,0.570652429,0.570100969,0.56954832,0.568994266,0.56817088,0.567317273,0.566461009,0.565462457,0.564149685,0.562829506,0.561501945,0.559897139,0.558172777,0.55643494,0.554689175,0.552969373,0.551235103,0.549486254,0.547824709,0.546243037,0.544648805,0.543041776,0.541275187,0.53948411,0.537679884,0.535738358,0.533532077,0.531309722,0.529071254,0.526831152,0.524578989,0.522309185,0.520096484,0.518327845,0.516543522,0.514743303,0.513206688,0.511890984,0.510562423,0.509220666,0.508017805,0.506811213,0.505592407,0.504411358,0.503311209,0.502200175,0.501078126,0.500300126,0.49962962,0.498952289,0.498351125,0.498180643,0.498008348,0.497834123,0.497722622,0.497660077,0.497596751,0.497532812,0.497282996,0.497024341,0.49676309,0.496476315,0.496148725,0.495817671,0.495483438,0.495223632,0.494983802,0.494741763,0.494480467,0.494140748,0.49379752,0.493450884,0.492912873,0.492235343,0.491551079,0.490859797,0.49001569,0.489161645,0.488299239,0.487499449,0.486802296,0.486098102,0.485386746,0.484770703,0.484174341,0.483571553,0.482922106,0.482105283,0.481279677,0.480444769,0.479468714,0.478395754,0.4773116,0.47621724,0.475255121,0.474283709,0.473302504,0.472446067,0.471772495,0.471092364,0.47040553,0.469790552,0.469187108,0.468577559,0.467947708,0.467261972,0.466569257,0.465869448,0.46527254,0.464735862,0.46419366,0.463658141,0.463517702,0.463375845,0.463232552,0.46318521,0.463265093,0.463345802,0.46342736,0.463461565,0.463486739,0.463512075,0.463562717,0.463692551,0.463823538,0.463955811,0.464427779,0.4650911,0.465760991,0.46646827,0.467768648,0.469083229,0.470412094,0.4719514,0.473744968,0.475558758,0.477393089,0.47977916,0.482278963,0.484805319,0.48768634,0.491523215,0.495396388,0.4993061,0.50428256,0.509821923,0.515410511,0.521120648,0.527834921,0.534610759,0.541449162,0.548470274,0.555690916,0.56298071,0.570340556,0.577697362,0.585112381,0.592596853,0.600084133,0.607465268,0.614910267,0.622420101,0.629413425,0.636197127,0.643036607,0.649784387,0.655093416,0.660446624,0.665843958,0.670451584,0.6742423,0.678066456,0.681923852,0.685028426,0.688071798,0.691142781,0.694175156,0.697081354,0.700013282,0.702971314,0.705652593,0.708231092,0.710832068,0.713360243,0.715145543,0.716947184,0.718765353,0.720319794,0.721624403,0.722942317,0.724274039,0.72594609,0.727665153,0.729402515,0.731424675,0.734027467,0.736655551,0.739309781,0.742302705,0.745439574,0.748602971,0.751767609,0.754787186,0.757832088,0.760902816
19-LF-K-PMIGAP-195/1,37.827,0.157612721,0.155805948,0.154052425,0.152284461,0.150561525,0.148881834,0.14757796,0.14656145,0.145566033,0.144591009,0.14428103,0.143999232,0.143721917,0.143686132,0.144054167,0.144417862,0.144777282,0.145899707,0.147232853,0.148550701,0.150091512,0.152710574,0.155294661,0.157844472,0.160961517,0.164467478,0.167927641,0.171342864,0.174913682,0.178449943,0.181949305,0.185213041,0.188135938,0.191034133,0.193907876,0.196098913,0.198100868,0.200086026,0.201856162,0.202808955,0.20375361,0.204690256,0.204952591,0.204773283,0.204595262,0.204414107,0.203467885,0.202526881,0.201591084,0.200696525,0.199858076,0.199023176,0.198191822,0.197953548,0.197850661,0.197748064,0.197752401,0.198139094,0.198525389,0.198911286,0.19930564,0.199705445,0.200105448,0.200520103,0.201472568,0.202425139,0.203377833,0.205203157,0.208180418,0.211152493,0.214119432,0.219279451,0.224861476,0.230428033,0.23623142,0.242827073,0.249410086,0.255980559,0.261442631,0.266290511,0.271135894,0.275821697,0.277285071,0.278747985,0.280210416,0.280391088,0.279010639,0.277632166,0.27625561,0.273892609,0.271367461,0.268848521,0.266342039,0.263859532,0.261383176,0.258912935,0.256644616,0.254479315,0.252316779,0.250177067,0.248316807,0.246455593,0.244593433,0.242923346,0.241467726,0.240009149,0.2385476,0.237449224,0.236400682,0.235349654,0.234355007,0.233510645,0.232664977,0.231818029,0.231040155,0.230294224,0.229547708,0.228828176,0.228396723,0.227964808,0.227532493,0.227386619,0.227537879,0.227689345,0.227841071,0.22848007,0.229176869,0.229874612,0.230660214,0.23164982,0.23264009,0.233630943,0.234826445,0.236108632,0.237391606,0.238756875,0.240800638,0.242847271,0.244896788,0.247601673,0.250934599,0.254273704,0.257618989,0.261966072,0.266410114,0.270859538,0.275275691,0.279612956,0.283952357,0.288293883,0.291386947,0.294005297,0.296625959,0.298915376,0.298932965,0.298950593,0.298968251,0.297845058,0.295714486,0.293578777,0.291437956,0.288484631,0.285468739,0.282445312,0.279436199,0.276460622,0.273475396,0.270480415,0.267546947,0.264625347,0.261690681,0.258717721,0.2555864,0.252440276,0.249279208,0.246126339,0.242979695,0.239821123,0.236650558,0.234177004,0.23172724,0.229269086,0.227381059,0.226513613,0.225642059,0.224766325,0.226033223,0.227970415,0.229919039,0.232622526,0.239008621,0.245421105,0.251860223,0.261314226,0.27300288,0.284691794,0.296380973,0.311595619,0.326851881,0.34206596,0.357188882,0.372199288,0.387181236,0.402134779,0.414146676,0.425369705,0.436606255,0.446912039,0.453187541,0.459487376,0.465811766,0.46987995,0.472399452,0.474932634,0.477479625,0.477985303,0.478488673,0.478995338,0.479042863,0.47839789,0.477747944,0.47709303,0.475726445,0.4741783,0.472618622,0.470983378,0.469095281,0.467195572,0.465284261,0.463613903,0.46209391,0.460565655,0.45903632,0.457905559,0.456767584,0.45562227,0.454370562,0.452973104,0.451564512,0.450144584,0.448325469,0.446408764,0.444475763,0.442573735,0.440815495,0.439043036,0.437256283,0.436065257,0.435218399,0.43436458,0.433537062,0.433551182,0.433565434,0.433579818,0.433690986,0.433925883,0.434163203,0.434402979,0.434541638,0.434662734,0.434785106,0.434939814,0.435189653,0.435441794,0.435696159,0.436233545,0.43692415,0.437620387,0.438342809,0.439403369,0.440471977,0.44154869,0.442638117,0.443740756,0.444851251,0.44596974,0.446852471,0.447703573,0.448560646,0.449347271,0.449932772,0.450522417,0.45111617,0.451830814,0.452606793,0.45338796,0.454249018,0.455990751,0.457741935,0.459502797,0.461917594,0.465034052,0.468162476,0.471302914,0.475024649,0.478830984,0.482649318,0.486253252,0.489316428,0.492390811,0.495476547,0.497382413,0.498772054,0.500167374,0.501422291,0.50135215,0.50128177,0.501211227,0.500794599,0.500035143,0.499273887,0.498510771,0.497435051,0.496324249,0.495210063,0.493949996,0.492367669,0.490776796,0.48917722,0.487319593,0.485348295,0.483361302,0.481371586,0.479461297,0.477534305,0.475590523,0.473770461,0.472064328,0.47034476,0.468611585,0.466749378,0.464865375,0.462968553,0.460923962,0.458592971,0.456245941,0.45388263,0.451478775,0.449047338,0.446596283,0.444200565,0.442248528,0.440278234,0.438289525,0.43659106,0.435136254,0.433667011,0.432182942,0.430859131,0.42953189,0.428191318,0.426876508,0.425620898,0.424353113,0.423072911,0.42212793,0.421286363,0.420436472,0.419671698,0.419392723,0.419110817,0.418826009,0.41864448,0.41854357,0.418441551,0.418338431,0.418026194,0.417703836,0.417377986,0.416992215,0.416506824,0.41601649,0.415521144,0.415076092,0.414642724,0.414205073,0.41375707,0.413277455,0.412793217,0.412304155,0.411638105,0.410842581,0.410039056,0.409227515,0.408190738,0.407140943,0.406080331,0.40506264,0.404117957,0.403163529,0.402199114,0.401426585,0.400697852,0.399961486,0.399218021,0.398469876,0.397713976,0.396950116,0.396075912,0.39512556,0.394165507,0.393195607,0.392213701,0.391221989,0.390220302,0.389297816,0.388493418,0.387680937,0.386860337,0.386191127,0.385551111,0.384904383,0.384272422,0.383709516,0.383140593,0.382565654,0.382086784,0.381664247,0.381237312,0.380814068,0.380656676,0.380497563,0.380336993,0.380275515,0.380345758,0.380416755,0.380488278,0.380681801,0.380900755,0.381121763,0.38140208,0.381864972,0.382332427,0.382804549,0.383550866,0.384453459,0.385365115,0.386309284,0.387707804,0.389120944,0.390548932,0.392209679,0.394151612,0.396114758,0.398099356,0.400695278,0.403417824,0.406170145,0.409208795,0.413003739,0.416837396,0.420710658,0.425336373,0.430363548,0.435436329,0.440627066,0.446815475,0.453056756,0.459351795,0.466213534,0.473708213,0.481272038,0.488905991,0.497470075,0.506239094,0.515096321,0.524068628,0.533193698,0.542406661,0.551708822,0.56016595,0.568265996,0.576433021,0.584474109,0.590622405,0.596817302,0.603059342,0.608553301,0.613275497,0.618037347,0.62283903,0.627070889,0.631272769,0.635513934,0.639616221,0.643342658,0.647102746,0.650897024,0.653937514,0.656674931,0.659434335,0.662107275,0.66392387,0.66575576,0.667603008,0.66950296,0.671456903,0.673430725,0.675424639,0.678250337,0.681180141,0.684144234,0.687307578,0.690852971,0.69443601,0.698057544,0.70141118,0.704678575,0.707973879,0.711204948,0.713850884,0.71651675,0.719202904
19-LF-R-PMIGAP-220/1,44.34,0.216543416,0.212820006,0.209389487,0.20677197,0.204219547,0.201729849,0.199760157,0.198188888,0.196649922,0.195142254,0.194279099,0.193453842,0.192643518,0.192203266,0.192373812,0.192542004,0.192707988,0.194157757,0.195966796,0.19775595,0.199864743,0.203512464,0.207114841,0.210672627,0.214904953,0.219594043,0.224219275,0.228781821,0.233459394,0.23808561,0.242658881,0.246924009,0.250749343,0.254542258,0.25830328,0.261065051,0.263553873,0.266022856,0.268161107,0.269023419,0.269877872,0.270724673,0.270674233,0.270037795,0.269406744,0.268776535,0.267378731,0.265989109,0.264607557,0.263298649,0.262088087,0.260881875,0.259679941,0.258987804,0.258413076,0.257839841,0.25736332,0.257228995,0.257094845,0.256960974,0.257083465,0.257361541,0.257639578,0.257953153,0.259595642,0.261238757,0.262882445,0.26570241,0.270077095,0.274448293,0.278815977,0.285525622,0.292686262,0.299830941,0.307145683,0.315038991,0.322916628,0.330778704,0.337260279,0.342976119,0.348688059,0.354219697,0.356130078,0.358039626,0.359948349,0.360398414,0.359072157,0.357748179,0.356426482,0.353902817,0.351181899,0.348468764,0.345753672,0.343017833,0.340288982,0.337567113,0.335018816,0.332558607,0.330101095,0.327652418,0.325290611,0.322927534,0.320563235,0.318264992,0.316039181,0.313809492,0.311575892,0.309648534,0.30776114,0.305869437,0.3040869,0.30259413,0.301098479,0.299599978,0.298335829,0.297180284,0.296023572,0.294906215,0.294211656,0.293516779,0.292821545,0.292495495,0.292552025,0.29260863,0.292665329,0.293507165,0.294441902,0.295377936,0.296524516,0.298162443,0.299802287,0.301444165,0.303489241,0.30570553,0.307924012,0.310239721,0.31334754,0.316459616,0.31957591,0.323410195,0.327933271,0.332465045,0.337005595,0.34272497,0.348561766,0.354408528,0.360280197,0.366190686,0.372106463,0.378027528,0.38271661,0.386937224,0.391160961,0.395029144,0.396456067,0.39788519,0.399316604,0.399363834,0.398189912,0.397013065,0.395833288,0.393227059,0.39051601,0.387797091,0.384911294,0.381707413,0.378492562,0.375266782,0.372005368,0.368721766,0.365424006,0.36209899,0.35868417,0.35525306,0.351805644,0.348271744,0.344665814,0.341044918,0.337408881,0.33408053,0.330754789,0.327416858,0.324661314,0.322951243,0.321233648,0.319508521,0.320643961,0.322670464,0.324707614,0.327696668,0.33534469,0.343021766,0.350727997,0.36149932,0.374542509,0.38758746,0.400634227,0.415803623,0.43098399,0.446124732,0.460474172,0.473571471,0.486642813,0.499688163,0.509170276,0.517688221,0.526214437,0.53391287,0.538038019,0.542178261,0.54633367,0.548842657,0.550220837,0.5516061,0.552998607,0.552956631,0.552910304,0.552863682,0.552416099,0.551365136,0.550306276,0.549239572,0.547575949,0.54575715,0.543924965,0.542072289,0.540181745,0.53827932,0.536365016,0.534788582,0.533424083,0.532052,0.530678367,0.529648665,0.528612089,0.527568628,0.526390401,0.525027028,0.523652498,0.522266658,0.520526317,0.518698376,0.516854624,0.515048307,0.513406597,0.511751696,0.510083515,0.508915405,0.508035756,0.50714898,0.506281614,0.506082563,0.505881632,0.50567892,0.505592841,0.505656212,0.505720272,0.505784998,0.505941801,0.506116868,0.506293713,0.506518414,0.506883841,0.507252707,0.507624962,0.508084303,0.508591915,0.509103818,0.509617821,0.51010106,0.510587925,0.511078401,0.511562412,0.512037983,0.512516735,0.512998716,0.513600102,0.514223482,0.514851122,0.515537073,0.516374282,0.517217647,0.518067109,0.519136569,0.520316855,0.521505527,0.522762075,0.524722292,0.526693119,0.528674518,0.531211713,0.534343534,0.537486002,0.540639211,0.544357516,0.548157605,0.551969011,0.555573698,0.558658378,0.561755058,0.564863814,0.566708927,0.568000788,0.569298175,0.570439205,0.570109416,0.569778463,0.569446495,0.568810442,0.567873206,0.566933852,0.565992103,0.565044308,0.564092894,0.563138495,0.562117326,0.560950047,0.559776125,0.558595722,0.557104566,0.55548099,0.553844704,0.552179878,0.550383002,0.548571061,0.546743897,0.54500185,0.543337546,0.541660156,0.53996924,0.538273763,0.536566606,0.534846786,0.533006091,0.530933025,0.528844918,0.526741623,0.524502944,0.522203692,0.51988643,0.51760224,0.515615717,0.513611721,0.511589735,0.509869406,0.508402036,0.506920231,0.505423802,0.504257506,0.503098467,0.501927757,0.500822372,0.499849067,0.49886598,0.497873242,0.497172929,0.496563703,0.495948252,0.495403003,0.495254993,0.495105418,0.494954157,0.49488199,0.494871638,0.494861082,0.49485049,0.494600208,0.494339421,0.494075926,0.493721656,0.493215058,0.492703286,0.49218642,0.491680052,0.491173104,0.4906612,0.490159224,0.489721167,0.489278597,0.488831628,0.488351451,0.487845917,0.487335373,0.486819578,0.486227832,0.485629419,0.485025179,0.484422179,0.483824426,0.483220704,0.482610869,0.481966444,0.48130799,0.480642351,0.479932791,0.47906872,0.478195134,0.477311931,0.476363294,0.475368258,0.47436282,0.473348684,0.472534818,0.471712906,0.470882962,0.470161416,0.46959898,0.469031071,0.468457454,0.467876696,0.467289711,0.466696766,0.4660616,0.465291904,0.464514352,0.463728849,0.463007662,0.46232267,0.461630771,0.460944983,0.460688014,0.460428228,0.460165987,0.460054374,0.460142859,0.460232364,0.460322798,0.460454215,0.460594649,0.460736525,0.460898665,0.461121707,0.461346816,0.461574269,0.462082262,0.462749064,0.46342246,0.464133143,0.465434653,0.466750377,0.468080285,0.469667142,0.471564695,0.473483872,0.475424681,0.477957194,0.48061139,0.483293752,0.4863095,0.490217111,0.494161566,0.498143381,0.503157408,0.508716917,0.514325965,0.520066769,0.526946089,0.533888751,0.540895366,0.548172074,0.555746178,0.563392916,0.571113156,0.578727044,0.586386997,0.594118569,0.601728847,0.608911505,0.616156434,0.623464326,0.630025751,0.636269359,0.642564275,0.648779762,0.65372212,0.658705358,0.663729921,0.668213284,0.67213726,0.676095677,0.680088532,0.683514527,0.68690333,0.690322556,0.693588043,0.696454787,0.699346942,0.702264973,0.704516642,0.706499642,0.7084999,0.710416832,0.711539852,0.712673144,0.713816828,0.714953582,0.716085708,0.717229207,0.718384567,0.720323932,0.722352331,0.724402559,0.726731661,0.729624338,0.732545514,0.735495234,0.738533097,0.7416196,0.74473203,0.747827372,0.750657227,0.753510928,0.756388709
19-LF-R-PMIGAP-232/1,107.012,0.148286188,0.145877936,0.143670069,0.142045661,0.140461695,0.138916639,0.137726698,0.136808508,0.135909164,0.135028112,0.134504529,0.134002727,0.13351003,0.133239588,0.13333583,0.133430793,0.133524452,0.1344937,0.135708096,0.136909179,0.138329092,0.140801919,0.143243979,0.145655812,0.148467249,0.151547854,0.154586541,0.157584044,0.160477675,0.163337023,0.166163611,0.16873593,0.17093724,0.173119916,0.175284203,0.17680299,0.178146971,0.179480272,0.180620242,0.181011703,0.181399637,0.18178406,0.181639591,0.181149934,0.180664417,0.180180399,0.179250483,0.178326015,0.177406939,0.176561022,0.175816232,0.175074069,0.174334565,0.17398901,0.173733779,0.173479206,0.173294155,0.173356147,0.173418033,0.173479806,0.173682244,0.173970138,0.174257924,0.17456816,0.175717902,0.176868035,0.178018572,0.179999374,0.183077561,0.186153282,0.189226515,0.194146436,0.199422677,0.204687144,0.210166614,0.216358489,0.222538083,0.22870547,0.234068546,0.238985837,0.243899791,0.248678561,0.250751202,0.252822927,0.254893756,0.255697577,0.254958208,0.254220084,0.253483233,0.251480975,0.249269373,0.247064112,0.244833753,0.242519362,0.24021089,0.237908335,0.235903512,0.234049847,0.232198194,0.230374772,0.228917685,0.227459829,0.226001204,0.224679427,0.223510558,0.222339652,0.221166696,0.2202717,0.219414705,0.218555763,0.217774705,0.217198554,0.216621294,0.216042926,0.215565341,0.215134464,0.214703178,0.214284101,0.213997082,0.213709909,0.213422619,0.213313365,0.213388639,0.21346402,0.21353945,0.214077096,0.214669498,0.215262728,0.215972088,0.21695231,0.217933721,0.218916307,0.220103716,0.221378205,0.222653916,0.224007625,0.225999839,0.227994806,0.229992473,0.23272235,0.236154047,0.239592356,0.243037309,0.247801784,0.252695239,0.257597003,0.262557341,0.267630369,0.272707951,0.277790079,0.281710617,0.285189199,0.288670404,0.291838404,0.292857067,0.293877268,0.294899109,0.294867309,0.29390595,0.29294214,0.291975985,0.290083334,0.288122071,0.286155131,0.284046897,0.281668511,0.279282012,0.276887404,0.274297325,0.271631843,0.268954894,0.26625668,0.263490389,0.260710919,0.25791826,0.25524713,0.252674048,0.25009026,0.247495689,0.245354034,0.243225707,0.241089585,0.239315531,0.238191553,0.237062652,0.235928813,0.236765375,0.238215997,0.239674218,0.241932551,0.248112321,0.254315579,0.260542382,0.269821913,0.281366935,0.29291352,0.304461707,0.31878157,0.333129931,0.347440814,0.361233601,0.374215655,0.387171926,0.400102462,0.409742045,0.418492198,0.427250845,0.435175873,0.439502113,0.443844175,0.448202148,0.450792143,0.452167514,0.453549974,0.454939647,0.454748485,0.454551628,0.45435354,0.453767298,0.45259733,0.451418661,0.450231267,0.448549683,0.446737962,0.444912826,0.443071453,0.44120774,0.439332391,0.437445281,0.435814314,0.43434326,0.432863964,0.431381279,0.430169794,0.428950284,0.427722667,0.426425295,0.425033134,0.423629557,0.422214455,0.420620445,0.418977388,0.417320157,0.415687656,0.414173194,0.412646568,0.411107676,0.409853405,0.408761385,0.40766058,0.406568163,0.405907399,0.405240602,0.404567704,0.40405734,0.403755927,0.403451512,0.403143968,0.40315204,0.403218377,0.403285425,0.403412443,0.403719023,0.404028423,0.40434073,0.404608152,0.404852584,0.405099054,0.405335773,0.405382599,0.40542983,0.4054774,0.405546613,0.40564117,0.405736289,0.405832132,0.406260405,0.40674284,0.407228571,0.407862863,0.408894701,0.409934146,0.410981113,0.412515717,0.414293407,0.416083753,0.417970323,0.42084827,0.42374174,0.426650797,0.430107341,0.434147879,0.438202201,0.442270414,0.44659257,0.450958315,0.455336946,0.459425887,0.462789946,0.466166987,0.469557226,0.471751448,0.473423174,0.475102042,0.47665603,0.477012674,0.477370475,0.47772947,0.477812891,0.477622878,0.477432469,0.477241575,0.476761041,0.476249275,0.475735889,0.475048345,0.473974943,0.472895404,0.471809829,0.470345183,0.468720666,0.467083514,0.465426229,0.46370019,0.461959607,0.460204392,0.458549387,0.45698601,0.455410306,0.453821931,0.452224038,0.450614681,0.448993458,0.447276919,0.445379311,0.443467958,0.441542665,0.439534574,0.437486072,0.435421563,0.433373451,0.431509684,0.429629414,0.427732366,0.425986494,0.424365541,0.422728726,0.421075682,0.419652765,0.418229155,0.416791127,0.415490324,0.414457499,0.413414395,0.412360949,0.411794245,0.411383116,0.410967782,0.410622103,0.41066162,0.410701602,0.410741902,0.410732458,0.410683883,0.410634767,0.410585065,0.410170148,0.409738762,0.40930288,0.408809923,0.408223547,0.407631219,0.407032924,0.406536345,0.406065979,0.405590969,0.405116555,0.404661761,0.404202317,0.403738259,0.403148292,0.402465773,0.401776455,0.401080189,0.40024287,0.399395741,0.398540315,0.397723832,0.396972873,0.396214332,0.395448096,0.394785575,0.394144636,0.39349674,0.392831102,0.392115288,0.391391683,0.390660031,0.389881211,0.389068571,0.388247497,0.387419175,0.386740938,0.386056038,0.385364403,0.384767259,0.384308744,0.383845735,0.38337818,0.382956982,0.382543102,0.382124963,0.381691035,0.381211876,0.380727823,0.380238821,0.379809174,0.379413917,0.37901471,0.378618742,0.378461366,0.378302382,0.378141794,0.378043668,0.378028614,0.378013462,0.377998094,0.378010889,0.378029288,0.378047741,0.378113839,0.378329863,0.378547842,0.378768137,0.379288348,0.379978069,0.380674695,0.381404248,0.382639296,0.383887661,0.385149667,0.386671486,0.388507995,0.390365241,0.392243424,0.394891056,0.397691372,0.400521321,0.403733702,0.407974362,0.412254924,0.416576097,0.421879342,0.427703941,0.433580283,0.439574879,0.446498235,0.453485159,0.460536466,0.467838161,0.475415199,0.483064746,0.490787905,0.49863312,0.506558076,0.514557229,0.52253404,0.530332218,0.538198008,0.546132188,0.553452337,0.560519342,0.567644354,0.57469629,0.580476586,0.586304788,0.592181286,0.597451101,0.602093527,0.606776863,0.611501069,0.615433774,0.619307638,0.623216497,0.626910896,0.630060147,0.633237235,0.636442579,0.639050101,0.641419456,0.643809368,0.64616455,0.648094501,0.650042049,0.652007529,0.654125996,0.656393601,0.658684177,0.660998648,0.663892623,0.666866822,0.669873082,0.67297948,0.676260155,0.679572751,0.682918164,0.686131464,0.68931055,0.692516522,0.69573719,0.698900809,0.702091075,0.705308329
19-LF-R-PMIGAP-239/1,34.98,0.169732477,0.167106945,0.164699697,0.162927732,0.161199852,0.159514454,0.158275937,0.157378713,0.15649992,0.15563898,0.155252591,0.154889687,0.154533345,0.154388953,0.154596002,0.154800223,0.155001728,0.155999472,0.157219311,0.158425775,0.159845752,0.162294197,0.164712182,0.16710024,0.16995957,0.173138437,0.176274019,0.179367132,0.182586382,0.185770975,0.188919112,0.191894325,0.194627638,0.197337821,0.200025192,0.202076954,0.203953324,0.205814793,0.207423416,0.208056015,0.208682876,0.209304096,0.209152526,0.20849644,0.207845932,0.207197262,0.205931247,0.204672641,0.203421365,0.202324415,0.201443564,0.200565826,0.199691255,0.199428944,0.199306467,0.199184339,0.199119878,0.199261036,0.199401925,0.199542556,0.199619773,0.199658545,0.19969731,0.19975474,0.200509415,0.201264356,0.202019577,0.203722834,0.206679733,0.209634254,0.212586397,0.217664153,0.223153174,0.228629963,0.234299514,0.240611523,0.24691103,0.253198098,0.258391031,0.262977084,0.267560064,0.271994375,0.273442141,0.274889252,0.276335768,0.27657467,0.275343141,0.274113732,0.272886442,0.270632954,0.26821127,0.265796549,0.263378549,0.260937745,0.258503202,0.256074858,0.253904612,0.251865391,0.249828382,0.247821815,0.24620995,0.244597217,0.242983651,0.241551497,0.240322384,0.239091085,0.237857674,0.236856083,0.235885729,0.234913144,0.233966028,0.233088611,0.232209535,0.231328753,0.230508241,0.22971555,0.228922074,0.228155199,0.227674488,0.22719354,0.226712329,0.226498504,0.226561746,0.22662507,0.226688429,0.227236619,0.227842219,0.228448642,0.229168635,0.230153381,0.231139325,0.23212645,0.233392954,0.234777988,0.236164392,0.237639945,0.239846015,0.242055089,0.244267177,0.247174316,0.250747789,0.254328167,0.257915453,0.262701407,0.267605203,0.272517332,0.277505909,0.282645217,0.287789101,0.292937604,0.297049985,0.300768433,0.304489665,0.307891728,0.309102911,0.310315953,0.311530946,0.311519204,0.310425196,0.309328434,0.308228969,0.306000618,0.303688878,0.301370426,0.298968443,0.296409608,0.293842042,0.291265732,0.288706459,0.286145309,0.283573117,0.280974741,0.278277723,0.275567897,0.272845177,0.27007506,0.267265153,0.26444353,0.261610162,0.25910261,0.256601285,0.254090828,0.252008014,0.250693032,0.249372283,0.248045769,0.248810014,0.250225371,0.251648143,0.253852162,0.259885224,0.265941204,0.272020202,0.281085553,0.292367147,0.303650298,0.314934998,0.329204363,0.343507365,0.357773033,0.371668416,0.384992637,0.398290397,0.411561789,0.421644246,0.43086577,0.440096221,0.448457007,0.453063158,0.457686175,0.462326107,0.465088326,0.466560534,0.468040382,0.4695279,0.469439568,0.469346233,0.469252312,0.468769732,0.467702478,0.466627284,0.465544112,0.463826942,0.461945282,0.460049716,0.458106936,0.456025951,0.453931978,0.451824872,0.450041826,0.4484616,0.446872504,0.445282894,0.444158539,0.443026729,0.441887402,0.440660143,0.439312727,0.437954239,0.436584625,0.434857928,0.433043196,0.431212792,0.429411185,0.427744772,0.426064975,0.424371672,0.423193199,0.422311819,0.42142335,0.420555022,0.42037564,0.4201946,0.420011924,0.419902042,0.419885551,0.419868905,0.419852094,0.419783505,0.419704754,0.419625198,0.419586627,0.419673324,0.4197608,0.419849113,0.420189223,0.420665359,0.421145493,0.421648007,0.422452104,0.423262189,0.424078242,0.424947929,0.42587911,0.426816449,0.427760185,0.428625828,0.429484226,0.430348468,0.431170958,0.431870386,0.432574962,0.433284632,0.434081426,0.434923427,0.435771454,0.436692889,0.438410463,0.440137281,0.441873421,0.44428036,0.447406209,0.450542722,0.453690019,0.457567068,0.461547492,0.465539734,0.469358118,0.472736304,0.476127559,0.479532035,0.481745044,0.483437631,0.485137374,0.486686801,0.486805886,0.486925306,0.487045129,0.486787916,0.486156789,0.485524236,0.484890104,0.48396086,0.482998419,0.482032919,0.480918622,0.479475916,0.478025021,0.476566029,0.474778865,0.472850671,0.4709075,0.468950073,0.466982519,0.464998433,0.462997661,0.461122742,0.459363034,0.457589381,0.455801505,0.453972261,0.452127418,0.450269009,0.448286611,0.446066802,0.443830874,0.44157868,0.439277051,0.436945681,0.434596043,0.432294586,0.430385505,0.428459587,0.426516416,0.424845155,0.423401599,0.421943925,0.420471791,0.419181337,0.417888732,0.416583083,0.41532139,0.414153043,0.412973065,0.411781431,0.410945005,0.410219323,0.409486268,0.408834016,0.408639804,0.408443533,0.408245049,0.408110834,0.408026608,0.407941447,0.407855344,0.407524858,0.407182812,0.406837218,0.406448265,0.405988585,0.405524172,0.405055192,0.404704351,0.404385534,0.404063661,0.403739358,0.403415773,0.40308881,0.402758635,0.402226599,0.401547444,0.400861506,0.400168635,0.399173366,0.398164937,0.397146616,0.396146812,0.3951815,0.394206432,0.39322147,0.392392963,0.391598366,0.390795166,0.389983173,0.389161982,0.388331844,0.387492473,0.386599059,0.385666857,0.384724881,0.383774684,0.382995993,0.382209691,0.381415618,0.380753669,0.380284738,0.379811298,0.379333188,0.378944996,0.378574221,0.378199689,0.377796407,0.377301116,0.376800711,0.376295201,0.375811216,0.375338404,0.37486086,0.374388022,0.374229557,0.374069404,0.37390775,0.373872954,0.374006739,0.374141918,0.374278488,0.374468108,0.374669612,0.374873138,0.375094148,0.375365666,0.375639756,0.375916651,0.376406808,0.377018117,0.377635531,0.378284293,0.379423418,0.380574884,0.381738861,0.383181762,0.384962754,0.386763857,0.388585326,0.391182155,0.393932247,0.396711453,0.399871355,0.404055719,0.408279466,0.412543207,0.417830238,0.423659471,0.429540528,0.435550174,0.442625754,0.449766355,0.456972827,0.46451313,0.472422303,0.480407167,0.488468941,0.496758157,0.505145585,0.513611488,0.5220513,0.530296053,0.538612363,0.547000899,0.554630637,0.561941502,0.56931236,0.576586187,0.582328473,0.588118442,0.593956239,0.599130796,0.603619396,0.608147513,0.612715104,0.61662693,0.620495157,0.624398313,0.628139007,0.631455055,0.634800388,0.638175585,0.640879261,0.643314487,0.645770697,0.648160783,0.649868896,0.651592612,0.653332156,0.655185305,0.65714941,0.659133421,0.661138168,0.663973135,0.666910067,0.669878559,0.673029162,0.67652778,0.680060528,0.683628182,0.686978389,0.690262553,0.693574481,0.696863797,0.699841859,0.702844965,0.70587347
19-LF-R-PMIGAP-238/2,41.839,0.181549227,0.178804239,0.176220619,0.173948265,0.171732473,0.169571124,0.167901863,0.16660921,0.165343114,0.164102765,0.163538393,0.163007755,0.162486722,0.162237364,0.162437453,0.162634865,0.162829602,0.163996322,0.165434485,0.166856908,0.168554627,0.171573377,0.174554583,0.1774989,0.181062203,0.185046144,0.188975834,0.192852305,0.196807411,0.20071886,0.204585499,0.208180867,0.211387604,0.214567206,0.21772004,0.220107477,0.222284201,0.224443614,0.226341558,0.227235634,0.228121576,0.22899957,0.229044661,0.228545466,0.228050512,0.227554644,0.226191162,0.224835636,0.223488048,0.222209011,0.221022686,0.219840587,0.218662745,0.218144265,0.217776886,0.217410488,0.217159741,0.217320656,0.217481247,0.217641567,0.21787681,0.218157601,0.21843833,0.21874038,0.219839894,0.220939812,0.222040117,0.224140907,0.227564403,0.230985119,0.234403082,0.240099892,0.246237144,0.252360702,0.258685747,0.265684391,0.272669161,0.279640154,0.285340403,0.290335775,0.295327771,0.300150866,0.301576808,0.303002153,0.304426858,0.304539601,0.303054895,0.301572764,0.300093168,0.297657651,0.295066286,0.292482376,0.289927325,0.287440472,0.284959952,0.282485793,0.280182119,0.277965027,0.275750341,0.273543522,0.271413597,0.269282507,0.267150313,0.265083498,0.263088593,0.261090159,0.25908825,0.257356293,0.255659539,0.253958913,0.252351678,0.250992704,0.249631128,0.248266937,0.24712902,0.246095942,0.245061859,0.244066103,0.243481462,0.242896493,0.242311245,0.242033769,0.242075254,0.242116785,0.242158347,0.242799022,0.243510585,0.244223135,0.24511209,0.246412901,0.247715264,0.249019189,0.250757849,0.252680863,0.254605765,0.256630186,0.259467632,0.262308948,0.26515414,0.26863181,0.272716275,0.276808611,0.280908862,0.28597079,0.291129111,0.296296221,0.301478531,0.306680629,0.311887396,0.317098801,0.321260598,0.325023293,0.328788825,0.332239379,0.333527518,0.334817638,0.336109805,0.336118511,0.334994924,0.333868488,0.332739302,0.330258172,0.327677717,0.325089741,0.322361883,0.319368158,0.316364201,0.313350033,0.310371084,0.307395326,0.30440674,0.301403463,0.298376253,0.295334636,0.292278572,0.289177456,0.286038283,0.282886076,0.279720722,0.276909696,0.274105179,0.27129042,0.269006825,0.267676223,0.2663398,0.264997524,0.26614218,0.268062157,0.2699922,0.27276484,0.2796587,0.286578772,0.293525124,0.30336339,0.315345724,0.327329711,0.339315364,0.35376134,0.368228113,0.382657129,0.396561995,0.409646574,0.422705163,0.435737867,0.445592283,0.454588422,0.463593298,0.471776076,0.476409248,0.481059389,0.485726545,0.488603217,0.490250366,0.491906041,0.493570324,0.49358372,0.493592524,0.493601414,0.493166829,0.492064838,0.490954622,0.48983617,0.488056869,0.486106182,0.484141047,0.482140981,0.48005081,0.47794756,0.475831099,0.474068446,0.472527503,0.47097794,0.469427847,0.468331093,0.467227088,0.466115751,0.46489641,0.46352916,0.462150635,0.460760848,0.458970868,0.457083209,0.455179251,0.453296575,0.451525382,0.449739964,0.447940196,0.446675355,0.445719022,0.444755019,0.443815044,0.443678031,0.443539728,0.443400198,0.443403141,0.443588455,0.443775725,0.443964885,0.444184971,0.444412535,0.44464241,0.444908379,0.445278266,0.445651591,0.446028389,0.446568104,0.447196972,0.447831108,0.44847872,0.449263393,0.450053944,0.450850313,0.451636151,0.452408219,0.453185413,0.453967899,0.454631449,0.455280287,0.455933532,0.456561446,0.457113316,0.457669262,0.458229217,0.458967183,0.459794485,0.460627686,0.461543222,0.463360917,0.465188395,0.467025764,0.469538527,0.472775018,0.476022489,0.479281153,0.483163407,0.487135478,0.49111929,0.494871413,0.498041884,0.501224634,0.504419792,0.506300095,0.507604652,0.508914734,0.510068917,0.509756202,0.509442362,0.50912748,0.50850382,0.507574201,0.506642449,0.505708382,0.504670823,0.503619472,0.502564748,0.501397202,0.499981452,0.498557662,0.497125868,0.495341636,0.49340664,0.491456598,0.489484219,0.48744233,0.485383278,0.48330688,0.481369928,0.479560629,0.477737052,0.475898822,0.47409146,0.47227434,0.470443858,0.468486329,0.466284894,0.464067489,0.461833976,0.459474851,0.457058037,0.454622277,0.452227791,0.450185957,0.448126112,0.446047817,0.444288041,0.4427954,0.44128816,0.439765968,0.43851237,0.437261793,0.435998596,0.434768254,0.433610242,0.4324407,0.431259568,0.430384711,0.429604344,0.428816009,0.428119463,0.427941243,0.427761093,0.427578974,0.427543343,0.42762251,0.427702582,0.427783504,0.427594409,0.42739433,0.427192188,0.426861041,0.426311851,0.425757106,0.425196786,0.424657723,0.424121054,0.423579123,0.423074496,0.42275995,0.422442206,0.422121302,0.421811606,0.421509046,0.421203548,0.420894922,0.420337132,0.419771054,0.41919942,0.418522239,0.41768314,0.416835559,0.415979388,0.415055668,0.414107017,0.41314814,0.412198484,0.411316961,0.410425782,0.409524744,0.408736828,0.408021384,0.407298457,0.406569621,0.406016465,0.405457878,0.404893728,0.404315608,0.403719484,0.403117599,0.402509739,0.401723072,0.400889731,0.400047901,0.399187965,0.398285648,0.397374169,0.396453366,0.395772953,0.395235991,0.394693672,0.394161796,0.394154983,0.394148018,0.394141069,0.394201244,0.394350303,0.394500915,0.394653078,0.394637741,0.394589237,0.394540163,0.394510859,0.394544894,0.394579171,0.394613887,0.395108164,0.395860767,0.39662084,0.39743271,0.399098596,0.400782514,0.402484763,0.404453089,0.406742505,0.409057881,0.411399395,0.414153222,0.417000509,0.419877922,0.423045768,0.426979569,0.430950513,0.434958989,0.440025343,0.445650535,0.451325744,0.457144235,0.4642467,0.471414502,0.478648338,0.486218888,0.494161369,0.502179986,0.510275781,0.518424805,0.526646392,0.534944965,0.543216924,0.551295321,0.55944376,0.567662957,0.575320528,0.582750581,0.590241531,0.597645328,0.603607381,0.609618923,0.615680157,0.620879228,0.625186465,0.629531621,0.633914706,0.637246097,0.64048408,0.643751297,0.646912626,0.649788585,0.652689975,0.65561723,0.658345382,0.661003631,0.663684857,0.66632694,0.668490387,0.670673694,0.672876951,0.674904282,0.676766429,0.678647365,0.680547998,0.682761423,0.685024544,0.687311921,0.689869834,0.692970927,0.696102274,0.699264563,0.702765587,0.706412768,0.710090905,0.713768542,0.717264573,0.720790003,0.724345354
19-LF-K-PMIGAP-191/2,97.091,0.167506833,0.165422136,0.163415408,0.161479157,0.159592169,0.157752595,0.156344252,0.155265477,0.15420908,0.153174361,0.152791832,0.152438174,0.152090108,0.151980053,0.152266822,0.152550232,0.152830288,0.153902611,0.155194549,0.156471602,0.157967552,0.1605213,0.16304095,0.165527179,0.168507783,0.171826388,0.175101635,0.178334346,0.181627807,0.184888178,0.188114547,0.191112284,0.1937781,0.196421383,0.199042419,0.201011116,0.202799948,0.204573772,0.206134274,0.20687903,0.207617401,0.208349522,0.208443992,0.208121153,0.207800648,0.207478935,0.206546717,0.205619675,0.20469775,0.203843866,0.203084508,0.202328366,0.201575455,0.20128151,0.201092592,0.200904243,0.200786611,0.200920818,0.201054919,0.201188844,0.201443404,0.20177145,0.202099646,0.202454136,0.203781331,0.205108699,0.206436217,0.208724937,0.21228209,0.215833078,0.219377879,0.224885278,0.230768177,0.236634815,0.242650588,0.249180764,0.255698467,0.262203714,0.267606133,0.272397425,0.277186245,0.281828637,0.283517603,0.285206058,0.286893933,0.287346113,0.286293101,0.285241602,0.284191541,0.281996024,0.279611013,0.277231904,0.274832549,0.272364433,0.269902446,0.26744652,0.265280734,0.26326268,0.26124723,0.25926237,0.257667995,0.256072801,0.254476807,0.25298578,0.25161137,0.250234186,0.248854197,0.247554887,0.246264525,0.244971103,0.243712769,0.242550612,0.241386688,0.240220971,0.239270564,0.238420025,0.237568799,0.236759893,0.236400478,0.236040702,0.235680551,0.235583572,0.235759533,0.235935784,0.236112311,0.236688483,0.237312087,0.237936563,0.23866458,0.239633474,0.24060302,0.241573134,0.242836291,0.244223452,0.245611445,0.247082131,0.249234341,0.251389546,0.253547813,0.256293573,0.259602469,0.262917541,0.266238724,0.270463469,0.274776038,0.279093796,0.283392856,0.287644206,0.291897654,0.296153198,0.29930256,0.302031542,0.304762933,0.307195127,0.307573682,0.307952988,0.308332973,0.30764455,0.306012979,0.304377451,0.302738014,0.300167136,0.297526429,0.294879147,0.292139843,0.289226508,0.286303711,0.28337138,0.28035609,0.277302446,0.274235187,0.271145546,0.26799234,0.264824204,0.261641063,0.258577217,0.255610231,0.252631993,0.249642451,0.247309975,0.244999932,0.242681989,0.24085128,0.239893233,0.238930623,0.237963427,0.239082207,0.24085307,0.242634401,0.245186422,0.251503379,0.257846498,0.264215905,0.273484533,0.284901643,0.296319033,0.307736651,0.321953477,0.336197461,0.350402112,0.364235117,0.377498449,0.39073666,0.403949793,0.41422106,0.423700996,0.433192391,0.441889487,0.447147631,0.452426181,0.457725307,0.461188733,0.463392518,0.46560826,0.467836064,0.468170777,0.468502411,0.468836219,0.468650031,0.467680162,0.466702831,0.465718018,0.464081655,0.462276927,0.460458721,0.4586251,0.456772141,0.454907828,0.453032082,0.451470065,0.450104863,0.448732212,0.44735713,0.44625845,0.445152777,0.444039963,0.442807132,0.441409617,0.440000964,0.438581005,0.436898739,0.435149073,0.43338453,0.43165622,0.43008604,0.428503202,0.426907557,0.425691449,0.424692984,0.423686281,0.422691763,0.422209442,0.421722604,0.421231211,0.420884568,0.420723994,0.420561755,0.420397897,0.42049251,0.420635559,0.420780071,0.420989306,0.421390869,0.421796077,0.422204882,0.422622548,0.423046286,0.423473532,0.423894415,0.424159577,0.424426755,0.424695968,0.424953858,0.425198105,0.425444065,0.425691758,0.426149865,0.426643322,0.427140295,0.427749932,0.428659507,0.429575501,0.430497827,0.431840672,0.433392839,0.434955457,0.436605771,0.439171383,0.441750912,0.444344642,0.447451568,0.451107119,0.454776713,0.458460424,0.462373613,0.46632685,0.47029254,0.473975275,0.476948836,0.479933329,0.482928856,0.484745976,0.486047357,0.487354067,0.48852932,0.488463858,0.488398181,0.488332347,0.487936559,0.487213971,0.486489664,0.485763586,0.484740507,0.483684096,0.482624459,0.48145597,0.480047537,0.478631476,0.477207715,0.47564111,0.474008786,0.472363412,0.470720107,0.469174572,0.467615483,0.466042851,0.46451994,0.463042781,0.461553989,0.460053444,0.458310206,0.456537007,0.454751689,0.452824801,0.450623294,0.448406589,0.446174552,0.443938171,0.4416883,0.439420312,0.43720234,0.435388176,0.433557048,0.431708799,0.430106403,0.428710189,0.427300074,0.425875797,0.424615724,0.423353076,0.422077774,0.42084851,0.419715721,0.418571953,0.417416976,0.416583601,0.415849905,0.415108948,0.414439375,0.414178417,0.413914715,0.413648344,0.413459945,0.413332361,0.413203397,0.413073019,0.412774887,0.412468084,0.412157958,0.411807748,0.411391573,0.41097115,0.410546411,0.410186725,0.409843696,0.409497277,0.409143788,0.408770634,0.408393842,0.408013301,0.407454462,0.406765556,0.406069714,0.405366881,0.404369969,0.403359598,0.402338814,0.401333132,0.400356647,0.399370077,0.398373186,0.397619418,0.396922833,0.39621892,0.395539477,0.394980622,0.394416024,0.393845422,0.393169791,0.392422197,0.391666927,0.390902013,0.389915817,0.388919731,0.38791372,0.386922418,0.385956679,0.384981239,0.383996034,0.383261052,0.382577162,0.381886072,0.381250955,0.380832039,0.380408637,0.379980817,0.37959361,0.379229443,0.378861432,0.37848953,0.378112152,0.37773092,0.377345924,0.377034407,0.376821548,0.376606642,0.376389539,0.376484059,0.376640562,0.376798511,0.377036006,0.377521397,0.378011528,0.378506539,0.379106671,0.379768143,0.380436227,0.381124951,0.382087027,0.38305916,0.384041455,0.38538777,0.387176287,0.38898442,0.390812243,0.393657386,0.39669981,0.399775515,0.403139864,0.407260209,0.411422678,0.415628065,0.420234719,0.425064322,0.429937617,0.434896201,0.440440102,0.446031359,0.45167077,0.457867236,0.464686167,0.47156808,0.478513785,0.486436801,0.494566023,0.502776906,0.511035909,0.51928657,0.527616783,0.53602759,0.54345823,0.550465106,0.557529994,0.564487981,0.569829261,0.575211025,0.580633759,0.585608866,0.5901227,0.59467444,0.599264254,0.603556052,0.607849447,0.612183029,0.616325035,0.619967875,0.623643688,0.627352786,0.630171951,0.63262986,0.635107487,0.637509895,0.639162855,0.640829753,0.642510614,0.644323378,0.646265855,0.648228019,0.650210162,0.652884528,0.655648857,0.658445475,0.661355472,0.664467671,0.66761279,0.670791792,0.673741137,0.676617023,0.679517326,0.682393773,0.684972002,0.687569737,0.690187118
